时间[min]	数据[pA]
0.0000	7.8170
0.0003	7.8170
0.0007	7.8170
0.0010	7.8180
0.0013	7.8180
0.0017	7.8180
0.0020	7.8180
0.0023	7.8180
0.0027	7.8180
0.0030	7.8180
0.0033	7.8180
0.0037	7.8180
0.0040	7.8180
0.0043	7.8180
0.0047	7.8180
0.0050	7.8190
0.0053	7.8190
0.0057	7.8190
0.0060	7.8190
0.0063	7.8190
0.0067	7.8190
0.0070	7.8190
0.0073	7.8200
0.0077	7.8200
0.0080	7.8200
0.0083	7.8200
0.0087	7.8200
0.0090	7.8200
0.0093	7.8200
0.0097	7.8200
0.0100	7.8200
0.0103	7.8200
0.0107	7.8200
0.0110	7.8200
0.0113	7.8200
0.0117	7.8200
0.0120	7.8200
0.0123	7.8200
0.0127	7.8200
0.0130	7.8200
0.0133	7.8190
0.0137	7.8190
0.0140	7.8190
0.0143	7.8190
0.0147	7.8190
0.0150	7.8190
0.0153	7.8190
0.0157	7.8190
0.0160	7.8190
0.0163	7.8190
0.0167	7.8190
0.0170	7.8190
0.0173	7.8190
0.0177	7.8190
0.0180	7.8190
0.0183	7.8190
0.0187	7.8190
0.0190	7.8190
0.0193	7.8190
0.0197	7.8190
0.0200	7.8190
0.0203	7.8190
0.0207	7.8190
0.0210	7.8190
0.0213	7.8190
0.0217	7.8190
0.0220	7.8180
0.0223	7.8180
0.0227	7.8180
0.0230	7.8180
0.0233	7.8180
0.0237	7.8180
0.0240	7.8170
0.0243	7.8170
0.0247	7.8170
0.0250	7.8170
0.0253	7.8170
0.0257	7.8170
0.0260	7.8170
0.0263	7.8170
0.0267	7.8170
0.0270	7.8170
0.0273	7.8170
0.0277	7.8170
0.0280	7.8170
0.0283	7.8170
0.0287	7.8170
0.0290	7.8170
0.0293	7.8170
0.0297	7.8170
0.0300	7.8170
0.0303	7.8170
0.0307	7.8170
0.0310	7.8170
0.0313	7.8170
0.0317	7.8170
0.0320	7.8170
0.0323	7.8170
0.0327	7.8170
0.0330	7.8170
0.0333	7.8170
0.0337	7.8170
0.0340	7.8170
0.0343	7.8170
0.0347	7.8170
0.0350	7.8170
0.0353	7.8170
0.0357	7.8180
0.0360	7.8180
0.0363	7.8180
0.0367	7.8180
0.0370	7.8180
0.0373	7.8180
0.0377	7.8180
0.0380	7.8180
0.0383	7.8180
0.0387	7.8180
0.0390	7.8180
0.0393	7.8180
0.0397	7.8180
0.0400	7.8180
0.0403	7.8180
0.0407	7.8180
0.0410	7.8180
0.0413	7.8180
0.0417	7.8180
0.0420	7.8180
0.0423	7.8180
0.0427	7.8180
0.0430	7.8180
0.0433	7.8180
0.0437	7.8180
0.0440	7.8180
0.0443	7.8180
0.0447	7.8180
0.0450	7.8180
0.0453	7.8180
0.0457	7.8180
0.0460	7.8180
0.0463	7.8170
0.0467	7.8170
0.0470	7.8170
0.0473	7.8170
0.0477	7.8170
0.0480	7.8170
0.0483	7.8170
0.0487	7.8170
0.0490	7.8170
0.0493	7.8170
0.0497	7.8170
0.0500	7.8170
0.0503	7.8170
0.0507	7.8170
0.0510	7.8170
0.0513	7.8170
0.0517	7.8170
0.0520	7.8170
0.0523	7.8170
0.0527	7.8170
0.0530	7.8180
0.0533	7.8180
0.0537	7.8180
0.0540	7.8180
0.0543	7.8180
0.0547	7.8180
0.0550	7.8180
0.0553	7.8180
0.0557	7.8180
0.0560	7.8180
0.0563	7.8190
0.0567	7.8190
0.0570	7.8190
0.0573	7.8190
0.0577	7.8190
0.0580	7.8190
0.0583	7.8190
0.0587	7.8200
0.0590	7.8200
0.0593	7.8200
0.0597	7.8200
0.0600	7.8200
0.0603	7.8200
0.0607	7.8200
0.0610	7.8200
0.0613	7.8200
0.0617	7.8200
0.0620	7.8200
0.0623	7.8200
0.0627	7.8200
0.0630	7.8200
0.0633	7.8200
0.0637	7.8200
0.0640	7.8210
0.0643	7.8200
0.0647	7.8200
0.0650	7.8200
0.0653	7.8200
0.0657	7.8200
0.0660	7.8200
0.0663	7.8200
0.0667	7.8200
0.0670	7.8200
0.0673	7.8200
0.0677	7.8200
0.0680	7.8200
0.0683	7.8200
0.0687	7.8200
0.0690	7.8200
0.0693	7.8200
0.0697	7.8190
0.0700	7.8190
0.0703	7.8190
0.0707	7.8190
0.0710	7.8190
0.0713	7.8190
0.0717	7.8190
0.0720	7.8190
0.0723	7.8180
0.0727	7.8180
0.0730	7.8180
0.0733	7.8180
0.0737	7.8180
0.0740	7.8180
0.0743	7.8180
0.0747	7.8180
0.0750	7.8170
0.0753	7.8170
0.0757	7.8170
0.0760	7.8170
0.0763	7.8170
0.0767	7.8170
0.0770	7.8170
0.0773	7.8170
0.0777	7.8170
0.0780	7.8170
0.0783	7.8170
0.0787	7.8170
0.0790	7.8170
0.0793	7.8170
0.0797	7.8170
0.0800	7.8170
0.0803	7.8170
0.0807	7.8170
0.0810	7.8170
0.0813	7.8170
0.0817	7.8170
0.0820	7.8170
0.0823	7.8170
0.0827	7.8170
0.0830	7.8170
0.0833	7.8170
0.0837	7.8170
0.0840	7.8170
0.0843	7.8170
0.0847	7.8170
0.0850	7.8170
0.0853	7.8170
0.0857	7.8170
0.0860	7.8170
0.0863	7.8170
0.0867	7.8170
0.0870	7.8160
0.0873	7.8160
0.0877	7.8160
0.0880	7.8160
0.0883	7.8160
0.0887	7.8160
0.0890	7.8160
0.0893	7.8160
0.0897	7.8170
0.0900	7.8170
0.0903	7.8170
0.0907	7.8160
0.0910	7.8160
0.0913	7.8160
0.0917	7.8170
0.0920	7.8170
0.0923	7.8170
0.0927	7.8160
0.0930	7.8160
0.0933	7.8160
0.0937	7.8160
0.0940	7.8170
0.0943	7.8170
0.0947	7.8170
0.0950	7.8160
0.0953	7.8160
0.0957	7.8160
0.0960	7.8160
0.0963	7.8160
0.0967	7.8160
0.0970	7.8160
0.0973	7.8160
0.0977	7.8160
0.0980	7.8160
0.0983	7.8160
0.0987	7.8160
0.0990	7.8160
0.0993	7.8160
0.0997	7.8160
0.1000	7.8170
0.1003	7.8170
0.1007	7.8160
0.1010	7.8160
0.1013	7.8170
0.1017	7.8170
0.1020	7.8170
0.1023	7.8170
0.1027	7.8170
0.1030	7.8170
0.1033	7.8170
0.1037	7.8170
0.1040	7.8170
0.1043	7.8170
0.1047	7.8170
0.1050	7.8170
0.1053	7.8170
0.1057	7.8170
0.1060	7.8170
0.1063	7.8170
0.1067	7.8160
0.1070	7.8160
0.1073	7.8170
0.1077	7.8170
0.1080	7.8170
0.1083	7.8170
0.1087	7.8170
0.1090	7.8160
0.1093	7.8160
0.1097	7.8160
0.1100	7.8160
0.1103	7.8160
0.1107	7.8160
0.1110	7.8160
0.1113	7.8160
0.1117	7.8160
0.1120	7.8160
0.1123	7.8160
0.1127	7.8160
0.1130	7.8160
0.1133	7.8160
0.1137	7.8160
0.1140	7.8160
0.1143	7.8160
0.1147	7.8160
0.1150	7.8160
0.1153	7.8160
0.1157	7.8160
0.1160	7.8160
0.1163	7.8160
0.1167	7.8160
0.1170	7.8160
0.1173	7.8160
0.1177	7.8160
0.1180	7.8160
0.1183	7.8160
0.1187	7.8160
0.1190	7.8160
0.1193	7.8160
0.1197	7.8160
0.1200	7.8160
0.1203	7.8160
0.1207	7.8160
0.1210	7.8160
0.1213	7.8160
0.1217	7.8160
0.1220	7.8170
0.1223	7.8170
0.1227	7.8170
0.1230	7.8170
0.1233	7.8170
0.1237	7.8170
0.1240	7.8170
0.1243	7.8170
0.1247	7.8170
0.1250	7.8170
0.1253	7.8180
0.1257	7.8180
0.1260	7.8180
0.1263	7.8180
0.1267	7.8180
0.1270	7.8180
0.1273	7.8180
0.1277	7.8180
0.1280	7.8180
0.1283	7.8180
0.1287	7.8180
0.1290	7.8180
0.1293	7.8180
0.1297	7.8180
0.1300	7.8180
0.1303	7.8180
0.1307	7.8180
0.1310	7.8180
0.1313	7.8180
0.1317	7.8180
0.1320	7.8180
0.1323	7.8180
0.1327	7.8180
0.1330	7.8180
0.1333	7.8180
0.1337	7.8180
0.1340	7.8180
0.1343	7.8180
0.1347	7.8180
0.1350	7.8180
0.1353	7.8180
0.1357	7.8180
0.1360	7.8170
0.1363	7.8170
0.1367	7.8180
0.1370	7.8180
0.1373	7.8180
0.1377	7.8180
0.1380	7.8170
0.1383	7.8170
0.1387	7.8170
0.1390	7.8170
0.1393	7.8180
0.1397	7.8180
0.1400	7.8170
0.1403	7.8170
0.1407	7.8170
0.1410	7.8170
0.1413	7.8170
0.1417	7.8170
0.1420	7.8170
0.1423	7.8170
0.1427	7.8170
0.1430	7.8170
0.1433	7.8170
0.1437	7.8170
0.1440	7.8160
0.1443	7.8160
0.1447	7.8160
0.1450	7.8160
0.1453	7.8160
0.1457	7.8160
0.1460	7.8160
0.1463	7.8160
0.1467	7.8160
0.1470	7.8160
0.1473	7.8160
0.1477	7.8160
0.1480	7.8160
0.1483	7.8160
0.1487	7.8160
0.1490	7.8160
0.1493	7.8160
0.1497	7.8160
0.1500	7.8160
0.1503	7.8160
0.1507	7.8160
0.1510	7.8160
0.1513	7.8160
0.1517	7.8160
0.1520	7.8160
0.1523	7.8150
0.1527	7.8160
0.1530	7.8160
0.1533	7.8160
0.1537	7.8160
0.1540	7.8160
0.1543	7.8160
0.1547	7.8160
0.1550	7.8160
0.1553	7.8160
0.1557	7.8160
0.1560	7.8150
0.1563	7.8160
0.1567	7.8160
0.1570	7.8160
0.1573	7.8160
0.1577	7.8160
0.1580	7.8160
0.1583	7.8160
0.1587	7.8160
0.1590	7.8160
0.1593	7.8160
0.1597	7.8160
0.1600	7.8160
0.1603	7.8160
0.1607	7.8160
0.1610	7.8160
0.1613	7.8160
0.1617	7.8160
0.1620	7.8160
0.1623	7.8160
0.1627	7.8170
0.1630	7.8170
0.1633	7.8170
0.1637	7.8170
0.1640	7.8170
0.1643	7.8170
0.1647	7.8170
0.1650	7.8170
0.1653	7.8170
0.1657	7.8180
0.1660	7.8180
0.1663	7.8180
0.1667	7.8180
0.1670	7.8180
0.1673	7.8180
0.1677	7.8180
0.1680	7.8180
0.1683	7.8190
0.1687	7.8190
0.1690	7.8190
0.1693	7.8190
0.1697	7.8190
0.1700	7.8190
0.1703	7.8190
0.1707	7.8190
0.1710	7.8190
0.1713	7.8190
0.1717	7.8190
0.1720	7.8190
0.1723	7.8190
0.1727	7.8190
0.1730	7.8190
0.1733	7.8190
0.1737	7.8190
0.1740	7.8190
0.1743	7.8190
0.1747	7.8190
0.1750	7.8190
0.1753	7.8200
0.1757	7.8200
0.1760	7.8190
0.1763	7.8200
0.1767	7.8200
0.1770	7.8200
0.1773	7.8200
0.1777	7.8200
0.1780	7.8200
0.1783	7.8200
0.1787	7.8190
0.1790	7.8200
0.1793	7.8200
0.1797	7.8200
0.1800	7.8200
0.1803	7.8200
0.1807	7.8200
0.1810	7.8190
0.1813	7.8190
0.1817	7.8190
0.1820	7.8190
0.1823	7.8190
0.1827	7.8190
0.1830	7.8190
0.1833	7.8190
0.1837	7.8190
0.1840	7.8190
0.1843	7.8190
0.1847	7.8190
0.1850	7.8190
0.1853	7.8190
0.1857	7.8190
0.1860	7.8190
0.1863	7.8190
0.1867	7.8190
0.1870	7.8190
0.1873	7.8190
0.1877	7.8190
0.1880	7.8190
0.1883	7.8190
0.1887	7.8190
0.1890	7.8190
0.1893	7.8190
0.1897	7.8190
0.1900	7.8190
0.1903	7.8190
0.1907	7.8190
0.1910	7.8190
0.1913	7.8190
0.1917	7.8190
0.1920	7.8190
0.1923	7.8190
0.1927	7.8190
0.1930	7.8190
0.1933	7.8190
0.1937	7.8190
0.1940	7.8190
0.1943	7.8190
0.1947	7.8190
0.1950	7.8190
0.1953	7.8190
0.1957	7.8190
0.1960	7.8190
0.1963	7.8190
0.1967	7.8190
0.1970	7.8190
0.1973	7.8190
0.1977	7.8190
0.1980	7.8190
0.1983	7.8190
0.1987	7.8190
0.1990	7.8190
0.1993	7.8190
0.1997	7.8190
0.2000	7.8190
0.2003	7.8190
0.2007	7.8180
0.2010	7.8180
0.2013	7.8180
0.2017	7.8180
0.2020	7.8180
0.2023	7.8180
0.2027	7.8180
0.2030	7.8180
0.2033	7.8180
0.2037	7.8180
0.2040	7.8180
0.2043	7.8180
0.2047	7.8180
0.2050	7.8180
0.2053	7.8180
0.2057	7.8180
0.2060	7.8180
0.2063	7.8180
0.2067	7.8180
0.2070	7.8180
0.2073	7.8190
0.2077	7.8190
0.2080	7.8190
0.2083	7.8190
0.2087	7.8190
0.2090	7.8190
0.2093	7.8190
0.2097	7.8190
0.2100	7.8190
0.2103	7.8190
0.2107	7.8190
0.2110	7.8190
0.2113	7.8190
0.2117	7.8190
0.2120	7.8190
0.2123	7.8190
0.2127	7.8190
0.2130	7.8190
0.2133	7.8190
0.2137	7.8190
0.2140	7.8190
0.2143	7.8190
0.2147	7.8190
0.2150	7.8190
0.2153	7.8190
0.2157	7.8190
0.2160	7.8190
0.2163	7.8190
0.2167	7.8190
0.2170	7.8200
0.2173	7.8200
0.2177	7.8200
0.2180	7.8200
0.2183	7.8200
0.2187	7.8200
0.2190	7.8200
0.2193	7.8200
0.2197	7.8200
0.2200	7.8200
0.2203	7.8200
0.2207	7.8210
0.2210	7.8210
0.2213	7.8210
0.2217	7.8210
0.2220	7.8210
0.2223	7.8210
0.2227	7.8210
0.2230	7.8210
0.2233	7.8210
0.2237	7.8210
0.2240	7.8210
0.2243	7.8220
0.2247	7.8220
0.2250	7.8220
0.2253	7.8220
0.2257	7.8220
0.2260	7.8220
0.2263	7.8220
0.2267	7.8220
0.2270	7.8230
0.2273	7.8230
0.2277	7.8230
0.2280	7.8230
0.2283	7.8230
0.2287	7.8230
0.2290	7.8230
0.2293	7.8240
0.2297	7.8240
0.2300	7.8240
0.2303	7.8240
0.2307	7.8250
0.2310	7.8250
0.2313	7.8250
0.2317	7.8250
0.2320	7.8250
0.2323	7.8260
0.2327	7.8260
0.2330	7.8270
0.2333	7.8270
0.2337	7.8270
0.2340	7.8270
0.2343	7.8280
0.2347	7.8280
0.2350	7.8280
0.2353	7.8290
0.2357	7.8290
0.2360	7.8290
0.2363	7.8300
0.2367	7.8300
0.2370	7.8310
0.2373	7.8310
0.2377	7.8310
0.2380	7.8310
0.2383	7.8320
0.2387	7.8320
0.2390	7.8330
0.2393	7.8330
0.2397	7.8330
0.2400	7.8330
0.2403	7.8340
0.2407	7.8340
0.2410	7.8340
0.2413	7.8350
0.2417	7.8350
0.2420	7.8350
0.2423	7.8350
0.2427	7.8350
0.2430	7.8360
0.2433	7.8360
0.2437	7.8360
0.2440	7.8360
0.2443	7.8360
0.2447	7.8360
0.2450	7.8370
0.2453	7.8370
0.2457	7.8370
0.2460	7.8370
0.2463	7.8370
0.2467	7.8370
0.2470	7.8370
0.2473	7.8370
0.2477	7.8370
0.2480	7.8370
0.2483	7.8370
0.2487	7.8370
0.2490	7.8370
0.2493	7.8360
0.2497	7.8360
0.2500	7.8360
0.2503	7.8360
0.2507	7.8360
0.2510	7.8360
0.2513	7.8350
0.2517	7.8350
0.2520	7.8350
0.2523	7.8350
0.2527	7.8340
0.2530	7.8340
0.2533	7.8340
0.2537	7.8330
0.2540	7.8330
0.2543	7.8330
0.2547	7.8320
0.2550	7.8320
0.2553	7.8320
0.2557	7.8310
0.2560	7.8310
0.2563	7.8300
0.2567	7.8300
0.2570	7.8300
0.2573	7.8290
0.2577	7.8290
0.2580	7.8290
0.2583	7.8280
0.2587	7.8280
0.2590	7.8280
0.2593	7.8280
0.2597	7.8270
0.2600	7.8270
0.2603	7.8270
0.2607	7.8260
0.2610	7.8260
0.2613	7.8260
0.2617	7.8250
0.2620	7.8250
0.2623	7.8250
0.2627	7.8250
0.2630	7.8240
0.2633	7.8240
0.2637	7.8240
0.2640	7.8230
0.2643	7.8230
0.2647	7.8230
0.2650	7.8230
0.2653	7.8230
0.2657	7.8220
0.2660	7.8220
0.2663	7.8220
0.2667	7.8220
0.2670	7.8210
0.2673	7.8210
0.2677	7.8210
0.2680	7.8210
0.2683	7.8210
0.2687	7.8210
0.2690	7.8200
0.2693	7.8200
0.2697	7.8200
0.2700	7.8200
0.2703	7.8200
0.2707	7.8200
0.2710	7.8200
0.2713	7.8190
0.2717	7.8190
0.2720	7.8190
0.2723	7.8180
0.2727	7.8180
0.2730	7.8180
0.2733	7.8180
0.2737	7.8180
0.2740	7.8180
0.2743	7.8180
0.2747	7.8180
0.2750	7.8180
0.2753	7.8180
0.2757	7.8180
0.2760	7.8180
0.2763	7.8180
0.2767	7.8180
0.2770	7.8180
0.2773	7.8180
0.2777	7.8170
0.2780	7.8170
0.2783	7.8170
0.2787	7.8180
0.2790	7.8180
0.2793	7.8180
0.2797	7.8180
0.2800	7.8170
0.2803	7.8170
0.2807	7.8170
0.2810	7.8170
0.2813	7.8170
0.2817	7.8170
0.2820	7.8170
0.2823	7.8170
0.2827	7.8170
0.2830	7.8170
0.2833	7.8170
0.2837	7.8170
0.2840	7.8170
0.2843	7.8160
0.2847	7.8160
0.2850	7.8160
0.2853	7.8160
0.2857	7.8160
0.2860	7.8160
0.2863	7.8160
0.2867	7.8160
0.2870	7.8160
0.2873	7.8160
0.2877	7.8160
0.2880	7.8160
0.2883	7.8170
0.2887	7.8170
0.2890	7.8170
0.2893	7.8170
0.2897	7.8170
0.2900	7.8170
0.2903	7.8170
0.2907	7.8170
0.2910	7.8170
0.2913	7.8170
0.2917	7.8170
0.2920	7.8170
0.2923	7.8170
0.2927	7.8170
0.2930	7.8170
0.2933	7.8170
0.2937	7.8170
0.2940	7.8170
0.2943	7.8170
0.2947	7.8170
0.2950	7.8170
0.2953	7.8170
0.2957	7.8170
0.2960	7.8170
0.2963	7.8170
0.2967	7.8170
0.2970	7.8170
0.2973	7.8170
0.2977	7.8170
0.2980	7.8170
0.2983	7.8180
0.2987	7.8180
0.2990	7.8170
0.2993	7.8170
0.2997	7.8170
0.3000	7.8180
0.3003	7.8180
0.3007	7.8180
0.3010	7.8180
0.3013	7.8180
0.3017	7.8180
0.3020	7.8180
0.3023	7.8180
0.3027	7.8180
0.3030	7.8180
0.3033	7.8180
0.3037	7.8180
0.3040	7.8170
0.3043	7.8170
0.3047	7.8170
0.3050	7.8170
0.3053	7.8170
0.3057	7.8170
0.3060	7.8170
0.3063	7.8170
0.3067	7.8170
0.3070	7.8170
0.3073	7.8170
0.3077	7.8170
0.3080	7.8170
0.3083	7.8170
0.3087	7.8170
0.3090	7.8170
0.3093	7.8170
0.3097	7.8170
0.3100	7.8170
0.3103	7.8170
0.3107	7.8170
0.3110	7.8170
0.3113	7.8160
0.3117	7.8160
0.3120	7.8160
0.3123	7.8160
0.3127	7.8160
0.3130	7.8160
0.3133	7.8160
0.3137	7.8160
0.3140	7.8160
0.3143	7.8160
0.3147	7.8160
0.3150	7.8160
0.3153	7.8150
0.3157	7.8150
0.3160	7.8150
0.3163	7.8150
0.3167	7.8150
0.3170	7.8150
0.3173	7.8150
0.3177	7.8150
0.3180	7.8150
0.3183	7.8150
0.3187	7.8150
0.3190	7.8150
0.3193	7.8150
0.3197	7.8150
0.3200	7.8150
0.3203	7.8150
0.3207	7.8150
0.3210	7.8150
0.3213	7.8150
0.3217	7.8150
0.3220	7.8150
0.3223	7.8150
0.3227	7.8150
0.3230	7.8150
0.3233	7.8150
0.3237	7.8150
0.3240	7.8150
0.3243	7.8150
0.3247	7.8150
0.3250	7.8160
0.3253	7.8160
0.3257	7.8160
0.3260	7.8160
0.3263	7.8160
0.3267	7.8170
0.3270	7.8170
0.3273	7.8180
0.3277	7.8180
0.3280	7.8190
0.3283	7.8200
0.3287	7.8210
0.3290	7.8210
0.3293	7.8230
0.3297	7.8240
0.3300	7.8250
0.3303	7.8270
0.3307	7.8290
0.3310	7.8310
0.3313	7.8330
0.3317	7.8360
0.3320	7.8400
0.3323	7.8430
0.3327	7.8470
0.3330	7.8520
0.3333	7.8570
0.3337	7.8630
0.3340	7.8690
0.3343	7.8760
0.3347	7.8840
0.3350	7.8940
0.3353	7.9040
0.3357	7.9150
0.3360	7.9270
0.3363	7.9410
0.3367	7.9560
0.3370	7.9730
0.3373	7.9910
0.3377	8.0120
0.3380	8.0350
0.3383	8.0600
0.3387	8.0870
0.3390	8.1180
0.3393	8.1510
0.3397	8.1880
0.3400	8.2280
0.3403	8.2720
0.3407	8.3200
0.3410	8.3730
0.3413	8.4300
0.3417	8.4930
0.3420	8.5620
0.3423	8.6360
0.3427	8.7170
0.3430	8.8050
0.3433	8.9000
0.3437	9.0030
0.3440	9.1150
0.3443	9.2360
0.3447	9.3660
0.3450	9.5060
0.3453	9.6570
0.3457	9.8190
0.3460	9.9940
0.3463	10.1810
0.3467	10.3810
0.3470	10.5950
0.3473	10.8240
0.3477	11.0680
0.3480	11.3280
0.3483	11.6050
0.3487	11.8990
0.3490	12.2120
0.3493	12.5430
0.3497	12.8940
0.3500	13.2650
0.3503	13.6570
0.3507	14.0700
0.3510	14.5060
0.3513	14.9640
0.3517	15.4680
0.3520	15.9730
0.3523	16.5020
0.3527	17.0560
0.3530	17.6350
0.3533	18.2390
0.3537	18.8680
0.3540	19.5240
0.3543	20.2050
0.3547	20.9120
0.3550	21.6460
0.3553	22.4060
0.3557	23.1910
0.3560	24.0020
0.3563	24.8380
0.3567	25.6990
0.3570	26.5850
0.3573	27.4940
0.3577	28.4270
0.3580	29.3820
0.3583	30.3590
0.3587	31.3560
0.3590	32.3730
0.3593	33.4090
0.3597	34.4620
0.3600	35.5310
0.3603	36.6150
0.3607	37.7120
0.3610	38.8210
0.3613	39.9400
0.3617	41.0670
0.3620	42.2010
0.3623	43.3400
0.3627	44.4820
0.3630	45.6250
0.3633	46.7670
0.3637	47.9050
0.3640	49.0390
0.3643	50.1650
0.3647	51.2820
0.3650	52.3880
0.3653	53.4790
0.3657	54.5540
0.3660	55.6100
0.3663	56.6470
0.3667	57.6610
0.3670	58.6490
0.3673	59.6110
0.3677	60.5450
0.3680	61.4470
0.3683	62.2820
0.3687	63.1170
0.3690	63.9150
0.3693	64.6750
0.3697	65.3950
0.3700	66.0740
0.3703	66.7100
0.3707	67.3010
0.3710	67.8470
0.3713	68.3460
0.3717	68.7970
0.3720	69.1990
0.3723	69.5510
0.3727	69.8530
0.3730	70.1040
0.3733	70.3030
0.3737	70.4510
0.3740	70.5470
0.3743	70.5900
0.3747	70.5820
0.3750	70.5220
0.3753	70.4110
0.3757	70.2480
0.3760	70.0350
0.3763	69.7720
0.3767	69.4610
0.3770	69.1010
0.3773	68.6940
0.3777	68.2410
0.3780	67.7440
0.3783	67.2030
0.3787	66.6200
0.3790	65.9970
0.3793	65.3350
0.3797	64.6350
0.3800	63.9000
0.3803	63.1310
0.3807	62.3310
0.3810	61.5000
0.3813	60.6410
0.3817	59.7560
0.3820	58.8460
0.3823	57.9150
0.3827	56.9630
0.3830	55.9930
0.3833	55.0070
0.3837	54.0060
0.3840	52.9930
0.3843	51.9700
0.3847	50.9380
0.3850	49.8940
0.3853	48.8500
0.3857	47.8040
0.3860	46.7560
0.3863	45.7080
0.3867	44.6620
0.3870	43.6190
0.3873	42.5820
0.3877	41.5510
0.3880	40.5270
0.3883	39.5140
0.3887	38.5100
0.3890	37.5180
0.3893	36.5390
0.3897	35.5730
0.3900	34.6230
0.3903	33.6870
0.3907	32.7690
0.3910	31.8670
0.3913	30.9830
0.3917	30.1180
0.3920	29.2720
0.3923	28.4450
0.3927	27.6390
0.3930	26.8520
0.3933	26.0850
0.3937	25.3390
0.3940	24.6150
0.3943	23.9110
0.3947	23.2280
0.3950	22.5660
0.3953	21.9250
0.3957	21.3040
0.3960	20.7040
0.3963	20.1250
0.3967	19.5660
0.3970	19.0270
0.3973	18.5070
0.3977	18.0070
0.3980	17.5260
0.3983	17.0640
0.3987	16.6200
0.3990	16.1930
0.3993	15.7840
0.3997	15.3930
0.4000	15.0170
0.4003	14.6580
0.4007	14.3140
0.4010	13.9860
0.4013	13.6720
0.4017	13.3870
0.4020	13.1010
0.4023	12.8290
0.4027	12.5690
0.4030	12.3220
0.4033	12.0860
0.4037	11.8620
0.4040	11.6490
0.4043	11.4470
0.4047	11.2540
0.4050	11.0720
0.4053	10.8980
0.4057	10.7340
0.4060	10.5780
0.4063	10.4300
0.4067	10.2900
0.4070	10.1580
0.4073	10.0320
0.4077	9.9130
0.4080	9.8010
0.4083	9.6940
0.4087	9.5940
0.4090	9.4990
0.4093	9.4090
0.4097	9.3240
0.4100	9.2440
0.4103	9.1680
0.4107	9.0970
0.4110	9.0290
0.4113	8.9660
0.4117	8.9060
0.4120	8.8490
0.4123	8.7960
0.4127	8.7450
0.4130	8.6980
0.4133	8.6530
0.4137	8.6110
0.4140	8.5720
0.4143	8.5340
0.4147	8.4990
0.4150	8.4660
0.4153	8.4350
0.4157	8.4050
0.4160	8.3780
0.4163	8.3510
0.4167	8.3270
0.4170	8.3040
0.4173	8.2820
0.4177	8.2620
0.4180	8.2420
0.4183	8.2250
0.4187	8.2080
0.4190	8.1920
0.4193	8.1770
0.4197	8.1620
0.4200	8.1490
0.4203	8.1360
0.4207	8.1240
0.4210	8.1130
0.4213	8.1020
0.4217	8.0920
0.4220	8.0820
0.4223	8.0730
0.4227	8.0640
0.4230	8.0560
0.4233	8.0490
0.4237	8.0420
0.4240	8.0350
0.4243	8.0280
0.4247	8.0220
0.4250	8.0160
0.4253	8.0100
0.4257	8.0050
0.4260	8.0000
0.4263	7.9960
0.4267	7.9910
0.4270	7.9870
0.4273	7.9830
0.4277	7.9790
0.4280	7.9750
0.4283	7.9720
0.4287	7.9680
0.4290	7.9650
0.4293	7.9620
0.4297	7.9590
0.4300	7.9560
0.4303	7.9530
0.4307	7.9510
0.4310	7.9480
0.4313	7.9460
0.4317	7.9440
0.4320	7.9410
0.4323	7.9390
0.4327	7.9370
0.4330	7.9350
0.4333	7.9340
0.4337	7.9320
0.4340	7.9300
0.4343	7.9280
0.4347	7.9260
0.4350	7.9250
0.4353	7.9230
0.4357	7.9220
0.4360	7.9200
0.4363	7.9190
0.4367	7.9180
0.4370	7.9160
0.4373	7.9150
0.4377	7.9140
0.4380	7.9130
0.4383	7.9120
0.4387	7.9110
0.4390	7.9100
0.4393	7.9090
0.4397	7.9080
0.4400	7.9070
0.4403	7.9060
0.4407	7.9050
0.4410	7.9040
0.4413	7.9040
0.4417	7.9030
0.4420	7.9020
0.4423	7.9010
0.4427	7.9000
0.4430	7.8990
0.4433	7.8990
0.4437	7.8980
0.4440	7.8970
0.4443	7.8960
0.4447	7.8960
0.4450	7.8950
0.4453	7.8940
0.4457	7.8930
0.4460	7.8930
0.4463	7.8920
0.4467	7.8910
0.4470	7.8910
0.4473	7.8900
0.4477	7.8890
0.4480	7.8890
0.4483	7.8880
0.4487	7.8870
0.4490	7.8870
0.4493	7.8860
0.4497	7.8850
0.4500	7.8850
0.4503	7.8840
0.4507	7.8840
0.4510	7.8830
0.4513	7.8820
0.4517	7.8820
0.4520	7.8810
0.4523	7.8810
0.4527	7.8800
0.4530	7.8800
0.4533	7.8790
0.4537	7.8790
0.4540	7.8780
0.4543	7.8780
0.4547	7.8770
0.4550	7.8770
0.4553	7.8760
0.4557	7.8760
0.4560	7.8750
0.4563	7.8740
0.4567	7.8740
0.4570	7.8740
0.4573	7.8730
0.4577	7.8730
0.4580	7.8720
0.4583	7.8720
0.4587	7.8710
0.4590	7.8710
0.4593	7.8700
0.4597	7.8700
0.4600	7.8700
0.4603	7.8690
0.4607	7.8690
0.4610	7.8680
0.4613	7.8680
0.4617	7.8670
0.4620	7.8670
0.4623	7.8670
0.4627	7.8660
0.4630	7.8660
0.4633	7.8660
0.4637	7.8650
0.4640	7.8650
0.4643	7.8650
0.4647	7.8640
0.4650	7.8640
0.4653	7.8640
0.4657	7.8640
0.4660	7.8630
0.4663	7.8630
0.4667	7.8630
0.4670	7.8620
0.4673	7.8620
0.4677	7.8620
0.4680	7.8610
0.4683	7.8610
0.4687	7.8610
0.4690	7.8600
0.4693	7.8600
0.4697	7.8600
0.4700	7.8590
0.4703	7.8590
0.4707	7.8590
0.4710	7.8580
0.4713	7.8580
0.4717	7.8580
0.4720	7.8570
0.4723	7.8570
0.4727	7.8570
0.4730	7.8570
0.4733	7.8560
0.4737	7.8560
0.4740	7.8560
0.4743	7.8550
0.4747	7.8550
0.4750	7.8550
0.4753	7.8550
0.4757	7.8550
0.4760	7.8540
0.4763	7.8540
0.4767	7.8540
0.4770	7.8540
0.4773	7.8530
0.4777	7.8530
0.4780	7.8530
0.4783	7.8530
0.4787	7.8520
0.4790	7.8520
0.4793	7.8520
0.4797	7.8520
0.4800	7.8520
0.4803	7.8510
0.4807	7.8510
0.4810	7.8510
0.4813	7.8510
0.4817	7.8510
0.4820	7.8510
0.4823	7.8500
0.4827	7.8500
0.4830	7.8500
0.4833	7.8490
0.4837	7.8490
0.4840	7.8490
0.4843	7.8490
0.4847	7.8490
0.4850	7.8490
0.4853	7.8490
0.4857	7.8490
0.4860	7.8490
0.4863	7.8480
0.4867	7.8480
0.4870	7.8480
0.4873	7.8480
0.4877	7.8480
0.4880	7.8480
0.4883	7.8480
0.4887	7.8480
0.4890	7.8480
0.4893	7.8480
0.4897	7.8480
0.4900	7.8480
0.4903	7.8480
0.4907	7.8470
0.4910	7.8470
0.4913	7.8470
0.4917	7.8470
0.4920	7.8470
0.4923	7.8470
0.4927	7.8470
0.4930	7.8470
0.4933	7.8470
0.4937	7.8470
0.4940	7.8470
0.4943	7.8470
0.4947	7.8470
0.4950	7.8470
0.4953	7.8470
0.4957	7.8470
0.4960	7.8470
0.4963	7.8470
0.4967	7.8470
0.4970	7.8470
0.4973	7.8470
0.4977	7.8470
0.4980	7.8470
0.4983	7.8470
0.4987	7.8470
0.4990	7.8470
0.4993	7.8470
0.4997	7.8470
0.5000	7.8470
0.5003	7.8470
0.5007	7.8470
0.5010	7.8470
0.5013	7.8470
0.5017	7.8470
0.5020	7.8460
0.5023	7.8460
0.5027	7.8460
0.5030	7.8460
0.5033	7.8460
0.5037	7.8460
0.5040	7.8460
0.5043	7.8460
0.5047	7.8460
0.5050	7.8460
0.5053	7.8460
0.5057	7.8450
0.5060	7.8450
0.5063	7.8450
0.5067	7.8450
0.5070	7.8450
0.5073	7.8450
0.5077	7.8450
0.5080	7.8450
0.5083	7.8440
0.5087	7.8440
0.5090	7.8440
0.5093	7.8440
0.5097	7.8440
0.5100	7.8430
0.5103	7.8430
0.5107	7.8430
0.5110	7.8430
0.5113	7.8430
0.5117	7.8430
0.5120	7.8430
0.5123	7.8430
0.5127	7.8420
0.5130	7.8420
0.5133	7.8420
0.5137	7.8420
0.5140	7.8420
0.5143	7.8420
0.5147	7.8420
0.5150	7.8420
0.5153	7.8420
0.5157	7.8420
0.5160	7.8410
0.5163	7.8410
0.5167	7.8410
0.5170	7.8420
0.5173	7.8410
0.5177	7.8410
0.5180	7.8410
0.5183	7.8410
0.5187	7.8410
0.5190	7.8410
0.5193	7.8410
0.5197	7.8410
0.5200	7.8410
0.5203	7.8410
0.5207	7.8410
0.5210	7.8410
0.5213	7.8410
0.5217	7.8410
0.5220	7.8410
0.5223	7.8410
0.5227	7.8410
0.5230	7.8410
0.5233	7.8400
0.5237	7.8400
0.5240	7.8400
0.5243	7.8400
0.5247	7.8400
0.5250	7.8400
0.5253	7.8400
0.5257	7.8400
0.5260	7.8400
0.5263	7.8400
0.5267	7.8400
0.5270	7.8400
0.5273	7.8400
0.5277	7.8400
0.5280	7.8400
0.5283	7.8400
0.5287	7.8400
0.5290	7.8400
0.5293	7.8400
0.5297	7.8400
0.5300	7.8390
0.5303	7.8390
0.5307	7.8390
0.5310	7.8390
0.5313	7.8390
0.5317	7.8390
0.5320	7.8390
0.5323	7.8390
0.5327	7.8390
0.5330	7.8390
0.5333	7.8390
0.5337	7.8390
0.5340	7.8390
0.5343	7.8390
0.5347	7.8390
0.5350	7.8390
0.5353	7.8390
0.5357	7.8390
0.5360	7.8390
0.5363	7.8390
0.5367	7.8380
0.5370	7.8380
0.5373	7.8380
0.5377	7.8380
0.5380	7.8380
0.5383	7.8380
0.5387	7.8380
0.5390	7.8380
0.5393	7.8380
0.5397	7.8380
0.5400	7.8380
0.5403	7.8380
0.5407	7.8380
0.5410	7.8380
0.5413	7.8380
0.5417	7.8380
0.5420	7.8380
0.5423	7.8380
0.5427	7.8380
0.5430	7.8380
0.5433	7.8380
0.5437	7.8380
0.5440	7.8380
0.5443	7.8370
0.5447	7.8370
0.5450	7.8370
0.5453	7.8370
0.5457	7.8370
0.5460	7.8370
0.5463	7.8370
0.5467	7.8370
0.5470	7.8370
0.5473	7.8370
0.5477	7.8370
0.5480	7.8370
0.5483	7.8370
0.5487	7.8370
0.5490	7.8370
0.5493	7.8370
0.5497	7.8370
0.5500	7.8370
0.5503	7.8370
0.5507	7.8370
0.5510	7.8370
0.5513	7.8370
0.5517	7.8360
0.5520	7.8360
0.5523	7.8360
0.5527	7.8360
0.5530	7.8360
0.5533	7.8360
0.5537	7.8360
0.5540	7.8360
0.5543	7.8360
0.5547	7.8360
0.5550	7.8350
0.5553	7.8350
0.5557	7.8350
0.5560	7.8350
0.5563	7.8350
0.5567	7.8350
0.5570	7.8350
0.5573	7.8350
0.5577	7.8350
0.5580	7.8350
0.5583	7.8350
0.5587	7.8350
0.5590	7.8350
0.5593	7.8350
0.5597	7.8350
0.5600	7.8350
0.5603	7.8350
0.5607	7.8350
0.5610	7.8350
0.5613	7.8350
0.5617	7.8350
0.5620	7.8350
0.5623	7.8350
0.5627	7.8350
0.5630	7.8350
0.5633	7.8350
0.5637	7.8340
0.5640	7.8340
0.5643	7.8340
0.5647	7.8340
0.5650	7.8340
0.5653	7.8340
0.5657	7.8340
0.5660	7.8340
0.5663	7.8330
0.5667	7.8330
0.5670	7.8330
0.5673	7.8330
0.5677	7.8330
0.5680	7.8330
0.5683	7.8330
0.5687	7.8330
0.5690	7.8330
0.5693	7.8330
0.5697	7.8330
0.5700	7.8330
0.5703	7.8330
0.5707	7.8320
0.5710	7.8320
0.5713	7.8320
0.5717	7.8320
0.5720	7.8330
0.5723	7.8330
0.5727	7.8330
0.5730	7.8320
0.5733	7.8320
0.5737	7.8320
0.5740	7.8320
0.5743	7.8320
0.5747	7.8320
0.5750	7.8320
0.5753	7.8320
0.5757	7.8310
0.5760	7.8310
0.5763	7.8310
0.5767	7.8310
0.5770	7.8310
0.5773	7.8310
0.5777	7.8310
0.5780	7.8310
0.5783	7.8300
0.5787	7.8300
0.5790	7.8300
0.5793	7.8300
0.5797	7.8300
0.5800	7.8300
0.5803	7.8300
0.5807	7.8300
0.5810	7.8300
0.5813	7.8300
0.5817	7.8300
0.5820	7.8290
0.5823	7.8290
0.5827	7.8300
0.5830	7.8300
0.5833	7.8300
0.5837	7.8300
0.5840	7.8300
0.5843	7.8300
0.5847	7.8300
0.5850	7.8300
0.5853	7.8300
0.5857	7.8300
0.5860	7.8300
0.5863	7.8300
0.5867	7.8300
0.5870	7.8300
0.5873	7.8300
0.5877	7.8300
0.5880	7.8300
0.5883	7.8300
0.5887	7.8300
0.5890	7.8290
0.5893	7.8290
0.5897	7.8290
0.5900	7.8290
0.5903	7.8290
0.5907	7.8290
0.5910	7.8290
0.5913	7.8290
0.5917	7.8290
0.5920	7.8300
0.5923	7.8300
0.5927	7.8300
0.5930	7.8300
0.5933	7.8300
0.5937	7.8300
0.5940	7.8300
0.5943	7.8300
0.5947	7.8300
0.5950	7.8300
0.5953	7.8300
0.5957	7.8300
0.5960	7.8310
0.5963	7.8310
0.5967	7.8310
0.5970	7.8310
0.5973	7.8310
0.5977	7.8310
0.5980	7.8310
0.5983	7.8310
0.5987	7.8310
0.5990	7.8310
0.5993	7.8310
0.5997	7.8310
0.6000	7.8310
0.6003	7.8310
0.6007	7.8310
0.6010	7.8310
0.6013	7.8310
0.6017	7.8310
0.6020	7.8310
0.6023	7.8310
0.6027	7.8310
0.6030	7.8310
0.6033	7.8310
0.6037	7.8320
0.6040	7.8320
0.6043	7.8320
0.6047	7.8320
0.6050	7.8320
0.6053	7.8320
0.6057	7.8320
0.6060	7.8330
0.6063	7.8330
0.6067	7.8330
0.6070	7.8330
0.6073	7.8330
0.6077	7.8340
0.6080	7.8340
0.6083	7.8340
0.6087	7.8340
0.6090	7.8350
0.6093	7.8350
0.6097	7.8350
0.6100	7.8350
0.6103	7.8360
0.6107	7.8360
0.6110	7.8360
0.6113	7.8370
0.6117	7.8370
0.6120	7.8370
0.6123	7.8380
0.6127	7.8380
0.6130	7.8380
0.6133	7.8390
0.6137	7.8390
0.6140	7.8400
0.6143	7.8410
0.6147	7.8410
0.6150	7.8410
0.6153	7.8420
0.6157	7.8430
0.6160	7.8430
0.6163	7.8440
0.6167	7.8450
0.6170	7.8460
0.6173	7.8460
0.6177	7.8470
0.6180	7.8480
0.6183	7.8490
0.6187	7.8500
0.6190	7.8510
0.6193	7.8520
0.6197	7.8530
0.6200	7.8540
0.6203	7.8550
0.6207	7.8560
0.6210	7.8570
0.6213	7.8580
0.6217	7.8600
0.6220	7.8610
0.6223	7.8620
0.6227	7.8640
0.6230	7.8650
0.6233	7.8660
0.6237	7.8680
0.6240	7.8690
0.6243	7.8700
0.6247	7.8720
0.6250	7.8740
0.6253	7.8750
0.6257	7.8760
0.6260	7.8780
0.6263	7.8800
0.6267	7.8810
0.6270	7.8830
0.6273	7.8850
0.6277	7.8860
0.6280	7.8880
0.6283	7.8890
0.6287	7.8910
0.6290	7.8930
0.6293	7.8950
0.6297	7.8960
0.6300	7.8980
0.6303	7.9000
0.6307	7.9020
0.6310	7.9030
0.6313	7.9050
0.6317	7.9070
0.6320	7.9090
0.6323	7.9100
0.6327	7.9120
0.6330	7.9140
0.6333	7.9150
0.6337	7.9170
0.6340	7.9190
0.6343	7.9210
0.6347	7.9220
0.6350	7.9240
0.6353	7.9250
0.6357	7.9260
0.6360	7.9280
0.6363	7.9290
0.6367	7.9310
0.6370	7.9320
0.6373	7.9330
0.6377	7.9340
0.6380	7.9350
0.6383	7.9360
0.6387	7.9370
0.6390	7.9380
0.6393	7.9390
0.6397	7.9400
0.6400	7.9400
0.6403	7.9410
0.6407	7.9410
0.6410	7.9420
0.6413	7.9420
0.6417	7.9420
0.6420	7.9430
0.6423	7.9430
0.6427	7.9430
0.6430	7.9430
0.6433	7.9430
0.6437	7.9430
0.6440	7.9430
0.6443	7.9430
0.6447	7.9430
0.6450	7.9420
0.6453	7.9420
0.6457	7.9420
0.6460	7.9410
0.6463	7.9400
0.6467	7.9400
0.6470	7.9390
0.6473	7.9380
0.6477	7.9370
0.6480	7.9360
0.6483	7.9350
0.6487	7.9340
0.6490	7.9330
0.6493	7.9320
0.6497	7.9310
0.6500	7.9290
0.6503	7.9280
0.6507	7.9270
0.6510	7.9250
0.6513	7.9240
0.6517	7.9220
0.6520	7.9200
0.6523	7.9180
0.6527	7.9170
0.6530	7.9150
0.6533	7.9140
0.6537	7.9120
0.6540	7.9100
0.6543	7.9080
0.6547	7.9060
0.6550	7.9050
0.6553	7.9030
0.6557	7.9010
0.6560	7.8990
0.6563	7.8970
0.6567	7.8960
0.6570	7.8940
0.6573	7.8920
0.6577	7.8910
0.6580	7.8890
0.6583	7.8870
0.6587	7.8850
0.6590	7.8840
0.6593	7.8820
0.6597	7.8800
0.6600	7.8780
0.6603	7.8770
0.6607	7.8750
0.6610	7.8730
0.6613	7.8720
0.6617	7.8700
0.6620	7.8680
0.6623	7.8670
0.6627	7.8650
0.6630	7.8640
0.6633	7.8620
0.6637	7.8610
0.6640	7.8600
0.6643	7.8580
0.6647	7.8570
0.6650	7.8550
0.6653	7.8540
0.6657	7.8530
0.6660	7.8510
0.6663	7.8500
0.6667	7.8490
0.6670	7.8480
0.6673	7.8470
0.6677	7.8460
0.6680	7.8450
0.6683	7.8440
0.6687	7.8430
0.6690	7.8420
0.6693	7.8420
0.6697	7.8410
0.6700	7.8400
0.6703	7.8390
0.6707	7.8380
0.6710	7.8370
0.6713	7.8370
0.6717	7.8360
0.6720	7.8360
0.6723	7.8350
0.6727	7.8340
0.6730	7.8340
0.6733	7.8330
0.6737	7.8330
0.6740	7.8320
0.6743	7.8310
0.6747	7.8310
0.6750	7.8310
0.6753	7.8300
0.6757	7.8300
0.6760	7.8290
0.6763	7.8290
0.6767	7.8280
0.6770	7.8280
0.6773	7.8280
0.6777	7.8280
0.6780	7.8270
0.6783	7.8270
0.6787	7.8270
0.6790	7.8270
0.6793	7.8270
0.6797	7.8260
0.6800	7.8260
0.6803	7.8260
0.6807	7.8250
0.6810	7.8250
0.6813	7.8250
0.6817	7.8250
0.6820	7.8250
0.6823	7.8250
0.6827	7.8250
0.6830	7.8250
0.6833	7.8250
0.6837	7.8250
0.6840	7.8240
0.6843	7.8240
0.6847	7.8240
0.6850	7.8240
0.6853	7.8240
0.6857	7.8240
0.6860	7.8240
0.6863	7.8230
0.6867	7.8230
0.6870	7.8230
0.6873	7.8240
0.6877	7.8240
0.6880	7.8240
0.6883	7.8230
0.6887	7.8230
0.6890	7.8230
0.6893	7.8230
0.6897	7.8230
0.6900	7.8230
0.6903	7.8230
0.6907	7.8230
0.6910	7.8240
0.6913	7.8230
0.6917	7.8230
0.6920	7.8230
0.6923	7.8230
0.6927	7.8230
0.6930	7.8240
0.6933	7.8240
0.6937	7.8230
0.6940	7.8230
0.6943	7.8230
0.6947	7.8230
0.6950	7.8230
0.6953	7.8230
0.6957	7.8230
0.6960	7.8230
0.6963	7.8220
0.6967	7.8220
0.6970	7.8220
0.6973	7.8220
0.6977	7.8220
0.6980	7.8220
0.6983	7.8220
0.6987	7.8220
0.6990	7.8220
0.6993	7.8220
0.6997	7.8210
0.7000	7.8210
0.7003	7.8210
0.7007	7.8210
0.7010	7.8210
0.7013	7.8210
0.7017	7.8210
0.7020	7.8210
0.7023	7.8210
0.7027	7.8210
0.7030	7.8210
0.7033	7.8210
0.7037	7.8210
0.7040	7.8210
0.7043	7.8210
0.7047	7.8210
0.7050	7.8210
0.7053	7.8210
0.7057	7.8210
0.7060	7.8210
0.7063	7.8210
0.7067	7.8210
0.7070	7.8210
0.7073	7.8210
0.7077	7.8210
0.7080	7.8210
0.7083	7.8210
0.7087	7.8210
0.7090	7.8210
0.7093	7.8210
0.7097	7.8210
0.7100	7.8210
0.7103	7.8210
0.7107	7.8210
0.7110	7.8210
0.7113	7.8210
0.7117	7.8210
0.7120	7.8210
0.7123	7.8210
0.7127	7.8220
0.7130	7.8220
0.7133	7.8220
0.7137	7.8220
0.7140	7.8220
0.7143	7.8220
0.7147	7.8220
0.7150	7.8220
0.7153	7.8220
0.7157	7.8220
0.7160	7.8220
0.7163	7.8220
0.7167	7.8220
0.7170	7.8220
0.7173	7.8220
0.7177	7.8220
0.7180	7.8220
0.7183	7.8220
0.7187	7.8220
0.7190	7.8230
0.7193	7.8220
0.7197	7.8220
0.7200	7.8220
0.7203	7.8220
0.7207	7.8220
0.7210	7.8220
0.7213	7.8220
0.7217	7.8220
0.7220	7.8220
0.7223	7.8220
0.7227	7.8220
0.7230	7.8220
0.7233	7.8230
0.7237	7.8230
0.7240	7.8230
0.7243	7.8230
0.7247	7.8230
0.7250	7.8230
0.7253	7.8230
0.7257	7.8230
0.7260	7.8230
0.7263	7.8230
0.7267	7.8230
0.7270	7.8230
0.7273	7.8230
0.7277	7.8230
0.7280	7.8230
0.7283	7.8230
0.7287	7.8230
0.7290	7.8230
0.7293	7.8230
0.7297	7.8230
0.7300	7.8230
0.7303	7.8230
0.7307	7.8230
0.7310	7.8230
0.7313	7.8230
0.7317	7.8230
0.7320	7.8230
0.7323	7.8230
0.7327	7.8230
0.7330	7.8230
0.7333	7.8230
0.7337	7.8230
0.7340	7.8220
0.7343	7.8220
0.7347	7.8220
0.7350	7.8220
0.7353	7.8220
0.7357	7.8220
0.7360	7.8220
0.7363	7.8220
0.7367	7.8220
0.7370	7.8220
0.7373	7.8220
0.7377	7.8220
0.7380	7.8220
0.7383	7.8220
0.7387	7.8220
0.7390	7.8210
0.7393	7.8210
0.7397	7.8210
0.7400	7.8210
0.7403	7.8210
0.7407	7.8210
0.7410	7.8210
0.7413	7.8210
0.7417	7.8200
0.7420	7.8200
0.7423	7.8200
0.7427	7.8200
0.7430	7.8200
0.7433	7.8200
0.7437	7.8200
0.7440	7.8200
0.7443	7.8200
0.7447	7.8200
0.7450	7.8200
0.7453	7.8200
0.7457	7.8200
0.7460	7.8200
0.7463	7.8200
0.7467	7.8200
0.7470	7.8200
0.7473	7.8200
0.7477	7.8200
0.7480	7.8200
0.7483	7.8200
0.7487	7.8200
0.7490	7.8200
0.7493	7.8200
0.7497	7.8200
0.7500	7.8200
0.7503	7.8200
0.7507	7.8200
0.7510	7.8200
0.7513	7.8200
0.7517	7.8200
0.7520	7.8200
0.7523	7.8200
0.7527	7.8200
0.7530	7.8200
0.7533	7.8200
0.7537	7.8190
0.7540	7.8200
0.7543	7.8200
0.7547	7.8200
0.7550	7.8200
0.7553	7.8200
0.7557	7.8200
0.7560	7.8200
0.7563	7.8200
0.7567	7.8200
0.7570	7.8200
0.7573	7.8200
0.7577	7.8200
0.7580	7.8200
0.7583	7.8200
0.7587	7.8200
0.7590	7.8200
0.7593	7.8200
0.7597	7.8200
0.7600	7.8200
0.7603	7.8200
0.7607	7.8200
0.7610	7.8200
0.7613	7.8210
0.7617	7.8210
0.7620	7.8210
0.7623	7.8210
0.7627	7.8210
0.7630	7.8210
0.7633	7.8210
0.7637	7.8210
0.7640	7.8210
0.7643	7.8210
0.7647	7.8210
0.7650	7.8210
0.7653	7.8210
0.7657	7.8210
0.7660	7.8210
0.7663	7.8210
0.7667	7.8210
0.7670	7.8220
0.7673	7.8220
0.7677	7.8220
0.7680	7.8220
0.7683	7.8220
0.7687	7.8220
0.7690	7.8220
0.7693	7.8230
0.7697	7.8230
0.7700	7.8230
0.7703	7.8230
0.7707	7.8230
0.7710	7.8230
0.7713	7.8230
0.7717	7.8230
0.7720	7.8230
0.7723	7.8230
0.7727	7.8230
0.7730	7.8240
0.7733	7.8240
0.7737	7.8240
0.7740	7.8240
0.7743	7.8240
0.7747	7.8240
0.7750	7.8240
0.7753	7.8240
0.7757	7.8240
0.7760	7.8240
0.7763	7.8240
0.7767	7.8240
0.7770	7.8240
0.7773	7.8240
0.7777	7.8240
0.7780	7.8240
0.7783	7.8240
0.7787	7.8240
0.7790	7.8240
0.7793	7.8250
0.7797	7.8250
0.7800	7.8250
0.7803	7.8250
0.7807	7.8250
0.7810	7.8250
0.7813	7.8250
0.7817	7.8250
0.7820	7.8250
0.7823	7.8250
0.7827	7.8250
0.7830	7.8250
0.7833	7.8250
0.7837	7.8250
0.7840	7.8250
0.7843	7.8260
0.7847	7.8260
0.7850	7.8260
0.7853	7.8270
0.7857	7.8270
0.7860	7.8270
0.7863	7.8280
0.7867	7.8280
0.7870	7.8290
0.7873	7.8300
0.7877	7.8310
0.7880	7.8310
0.7883	7.8320
0.7887	7.8330
0.7890	7.8350
0.7893	7.8360
0.7897	7.8370
0.7900	7.8390
0.7903	7.8410
0.7907	7.8430
0.7910	7.8460
0.7913	7.8480
0.7917	7.8510
0.7920	7.8540
0.7923	7.8580
0.7927	7.8620
0.7930	7.8670
0.7933	7.8720
0.7937	7.8770
0.7940	7.8830
0.7943	7.8900
0.7947	7.8980
0.7950	7.9060
0.7953	7.9160
0.7957	7.9260
0.7960	7.9370
0.7963	7.9490
0.7967	7.9630
0.7970	7.9780
0.7973	7.9950
0.7977	8.0130
0.7980	8.0330
0.7983	8.0550
0.7987	8.0790
0.7990	8.1050
0.7993	8.1340
0.7997	8.1650
0.8000	8.2000
0.8003	8.2370
0.8007	8.2780
0.8010	8.3220
0.8013	8.3700
0.8017	8.4270
0.8020	8.4840
0.8023	8.5460
0.8027	8.6130
0.8030	8.6860
0.8033	8.7650
0.8037	8.8500
0.8040	8.9420
0.8043	9.0410
0.8047	9.1480
0.8050	9.2630
0.8053	9.3870
0.8057	9.5210
0.8060	9.6640
0.8063	9.8180
0.8067	9.9830
0.8070	10.1600
0.8073	10.3500
0.8077	10.5530
0.8080	10.7690
0.8083	11.0010
0.8087	11.2480
0.8090	11.5100
0.8093	11.7900
0.8097	12.0880
0.8100	12.4040
0.8103	12.7400
0.8107	13.0960
0.8110	13.4730
0.8113	13.8730
0.8117	14.2950
0.8120	14.7410
0.8123	15.2110
0.8127	15.7070
0.8130	16.2290
0.8133	16.7790
0.8137	17.3570
0.8140	17.9640
0.8143	18.6000
0.8147	19.2670
0.8150	19.9650
0.8153	20.6950
0.8157	21.4580
0.8160	22.2540
0.8163	23.0840
0.8167	23.9490
0.8170	24.8480
0.8173	25.7830
0.8177	26.7540
0.8180	27.7610
0.8183	28.8410
0.8187	29.9210
0.8190	31.0380
0.8193	32.1900
0.8197	33.3800
0.8200	34.6060
0.8203	35.8680
0.8207	37.1660
0.8210	38.5000
0.8213	39.8680
0.8217	41.2710
0.8220	42.7080
0.8223	44.1770
0.8227	45.6780
0.8230	47.2100
0.8233	48.7710
0.8237	50.3610
0.8240	51.9770
0.8243	53.6190
0.8247	55.2840
0.8250	56.9720
0.8253	58.6800
0.8257	60.4060
0.8260	62.1490
0.8263	63.9060
0.8267	65.6750
0.8270	67.4550
0.8273	69.2420
0.8277	71.0350
0.8280	72.8310
0.8283	74.6270
0.8287	76.4220
0.8290	78.2110
0.8293	79.9940
0.8297	81.7660
0.8300	83.5250
0.8303	85.2690
0.8307	86.9940
0.8310	88.6990
0.8313	90.3790
0.8317	92.0330
0.8320	93.6570
0.8323	95.2490
0.8327	96.8050
0.8330	98.3240
0.8333	99.8020
0.8337	101.2370
0.8340	102.6270
0.8343	103.9690
0.8347	105.2610
0.8350	106.4470
0.8353	107.6320
0.8357	108.7600
0.8360	109.8290
0.8363	110.8370
0.8367	111.7830
0.8370	112.6640
0.8373	113.4800
0.8377	114.2280
0.8380	114.9070
0.8383	115.5160
0.8387	116.0550
0.8390	116.5210
0.8393	116.9150
0.8397	117.2360
0.8400	117.4830
0.8403	117.6560
0.8407	117.7560
0.8410	117.7820
0.8413	117.7340
0.8417	117.6140
0.8420	117.4210
0.8423	117.1550
0.8427	116.8180
0.8430	116.4100
0.8433	115.9330
0.8437	115.3880
0.8440	114.7750
0.8443	114.0960
0.8447	113.3510
0.8450	112.5450
0.8453	111.6770
0.8457	110.7510
0.8460	109.7670
0.8463	108.7280
0.8467	107.6350
0.8470	106.4900
0.8473	105.2970
0.8477	104.0580
0.8480	102.7740
0.8483	101.4480
0.8487	100.0830
0.8490	98.6800
0.8493	97.2430
0.8497	95.7740
0.8500	94.2760
0.8503	92.7500
0.8507	91.2000
0.8510	89.6260
0.8513	88.0340
0.8517	86.4090
0.8520	84.7850
0.8523	83.1480
0.8527	81.5010
0.8530	79.8460
0.8533	78.1870
0.8537	76.5250
0.8540	74.8620
0.8543	73.2000
0.8547	71.5420
0.8550	69.8890
0.8553	68.2430
0.8557	66.6070
0.8560	64.9830
0.8563	63.3710
0.8567	61.7740
0.8570	60.1930
0.8573	58.6290
0.8577	57.0840
0.8580	55.5590
0.8583	54.0560
0.8587	52.5750
0.8590	51.1170
0.8593	49.6840
0.8597	48.2770
0.8600	46.8950
0.8603	45.5410
0.8607	44.2140
0.8610	42.9150
0.8613	41.6460
0.8617	40.4050
0.8620	39.1940
0.8623	38.0120
0.8627	36.8600
0.8630	35.7380
0.8633	34.6460
0.8637	33.5850
0.8640	32.5540
0.8643	31.5530
0.8647	30.5820
0.8650	29.6400
0.8653	28.7280
0.8657	27.8440
0.8660	26.9900
0.8663	26.1640
0.8667	25.3660
0.8670	24.5960
0.8673	23.8530
0.8677	23.1380
0.8680	22.4480
0.8683	21.8080
0.8687	21.1690
0.8690	20.5540
0.8693	19.9640
0.8697	19.3970
0.8700	18.8530
0.8703	18.3310
0.8707	17.8300
0.8710	17.3500
0.8713	16.8900
0.8717	16.4500
0.8720	16.0300
0.8723	15.6280
0.8727	15.2430
0.8730	14.8760
0.8733	14.5250
0.8737	14.1900
0.8740	13.8710
0.8743	13.5670
0.8747	13.2770
0.8750	13.0000
0.8753	12.7370
0.8757	12.4860
0.8760	12.2480
0.8763	12.0220
0.8767	11.8060
0.8770	11.6000
0.8773	11.4050
0.8777	11.2210
0.8780	11.0450
0.8783	10.8790
0.8787	10.7200
0.8790	10.5700
0.8793	10.4280
0.8797	10.2930
0.8800	10.1650
0.8803	10.0440
0.8807	9.9290
0.8810	9.8200
0.8813	9.7170
0.8817	9.6190
0.8820	9.5270
0.8823	9.4400
0.8827	9.3570
0.8830	9.2790
0.8833	9.2050
0.8837	9.1350
0.8840	9.0690
0.8843	9.0070
0.8847	8.9480
0.8850	8.8950
0.8853	8.8430
0.8857	8.7930
0.8860	8.7460
0.8863	8.7020
0.8867	8.6600
0.8870	8.6200
0.8873	8.5830
0.8877	8.5480
0.8880	8.5140
0.8883	8.4830
0.8887	8.4540
0.8890	8.4260
0.8893	8.3990
0.8897	8.3740
0.8900	8.3510
0.8903	8.3280
0.8907	8.3070
0.8910	8.2880
0.8913	8.2690
0.8917	8.2510
0.8920	8.2340
0.8923	8.2180
0.8927	8.2030
0.8930	8.1890
0.8933	8.1760
0.8937	8.1640
0.8940	8.1520
0.8943	8.1410
0.8947	8.1300
0.8950	8.1200
0.8953	8.1110
0.8957	8.1020
0.8960	8.0940
0.8963	8.0860
0.8967	8.0780
0.8970	8.0710
0.8973	8.0640
0.8977	8.0570
0.8980	8.0510
0.8983	8.0450
0.8987	8.0400
0.8990	8.0340
0.8993	8.0290
0.8997	8.0250
0.9000	8.0200
0.9003	8.0160
0.9007	8.0110
0.9010	8.0080
0.9013	8.0040
0.9017	8.0000
0.9020	7.9970
0.9023	7.9940
0.9027	7.9910
0.9030	7.9880
0.9033	7.9850
0.9037	7.9820
0.9040	7.9790
0.9043	7.9770
0.9047	7.9740
0.9050	7.9720
0.9053	7.9700
0.9057	7.9670
0.9060	7.9650
0.9063	7.9630
0.9067	7.9610
0.9070	7.9600
0.9073	7.9580
0.9077	7.9560
0.9080	7.9540
0.9083	7.9530
0.9087	7.9510
0.9090	7.9500
0.9093	7.9480
0.9097	7.9470
0.9100	7.9450
0.9103	7.9440
0.9107	7.9430
0.9110	7.9420
0.9113	7.9400
0.9117	7.9390
0.9120	7.9380
0.9123	7.9370
0.9127	7.9360
0.9130	7.9350
0.9133	7.9330
0.9137	7.9320
0.9140	7.9310
0.9143	7.9300
0.9147	7.9290
0.9150	7.9280
0.9153	7.9270
0.9157	7.9260
0.9160	7.9250
0.9163	7.9240
0.9167	7.9240
0.9170	7.9230
0.9173	7.9220
0.9177	7.9210
0.9180	7.9200
0.9183	7.9190
0.9187	7.9180
0.9190	7.9180
0.9193	7.9170
0.9197	7.9160
0.9200	7.9150
0.9203	7.9150
0.9207	7.9140
0.9210	7.9130
0.9213	7.9130
0.9217	7.9120
0.9220	7.9110
0.9223	7.9110
0.9227	7.9100
0.9230	7.9090
0.9233	7.9090
0.9237	7.9080
0.9240	7.9080
0.9243	7.9070
0.9247	7.9070
0.9250	7.9060
0.9253	7.9050
0.9257	7.9050
0.9260	7.9040
0.9263	7.9040
0.9267	7.9030
0.9270	7.9020
0.9273	7.9020
0.9277	7.9010
0.9280	7.9000
0.9283	7.9000
0.9287	7.9000
0.9290	7.8990
0.9293	7.8980
0.9297	7.8980
0.9300	7.8980
0.9303	7.8970
0.9307	7.8970
0.9310	7.8960
0.9313	7.8960
0.9317	7.8950
0.9320	7.8950
0.9323	7.8940
0.9327	7.8940
0.9330	7.8930
0.9333	7.8930
0.9337	7.8930
0.9340	7.8920
0.9343	7.8920
0.9347	7.8910
0.9350	7.8910
0.9353	7.8900
0.9357	7.8900
0.9360	7.8900
0.9363	7.8890
0.9367	7.8890
0.9370	7.8890
0.9373	7.8880
0.9377	7.8880
0.9380	7.8870
0.9383	7.8870
0.9387	7.8870
0.9390	7.8860
0.9393	7.8860
0.9397	7.8860
0.9400	7.8850
0.9403	7.8850
0.9407	7.8840
0.9410	7.8840
0.9413	7.8840
0.9417	7.8830
0.9420	7.8830
0.9423	7.8830
0.9427	7.8820
0.9430	7.8820
0.9433	7.8820
0.9437	7.8810
0.9440	7.8810
0.9443	7.8810
0.9447	7.8800
0.9450	7.8800
0.9453	7.8800
0.9457	7.8790
0.9460	7.8790
0.9463	7.8780
0.9467	7.8780
0.9470	7.8770
0.9473	7.8770
0.9477	7.8770
0.9480	7.8770
0.9483	7.8760
0.9487	7.8760
0.9490	7.8750
0.9493	7.8750
0.9497	7.8740
0.9500	7.8740
0.9503	7.8740
0.9507	7.8740
0.9510	7.8730
0.9513	7.8730
0.9517	7.8730
0.9520	7.8720
0.9523	7.8720
0.9527	7.8710
0.9530	7.8710
0.9533	7.8710
0.9537	7.8710
0.9540	7.8710
0.9543	7.8700
0.9547	7.8700
0.9550	7.8690
0.9553	7.8690
0.9557	7.8690
0.9560	7.8680
0.9563	7.8680
0.9567	7.8680
0.9570	7.8680
0.9573	7.8670
0.9577	7.8670
0.9580	7.8670
0.9583	7.8660
0.9587	7.8660
0.9590	7.8660
0.9593	7.8650
0.9597	7.8650
0.9600	7.8650
0.9603	7.8650
0.9607	7.8640
0.9610	7.8640
0.9613	7.8640
0.9617	7.8630
0.9620	7.8630
0.9623	7.8630
0.9627	7.8630
0.9630	7.8630
0.9633	7.8620
0.9637	7.8620
0.9640	7.8620
0.9643	7.8610
0.9647	7.8610
0.9650	7.8610
0.9653	7.8610
0.9657	7.8610
0.9660	7.8610
0.9663	7.8600
0.9667	7.8600
0.9670	7.8600
0.9673	7.8600
0.9677	7.8600
0.9680	7.8590
0.9683	7.8590
0.9687	7.8590
0.9690	7.8590
0.9693	7.8590
0.9697	7.8580
0.9700	7.8580
0.9703	7.8580
0.9707	7.8580
0.9710	7.8580
0.9713	7.8580
0.9717	7.8570
0.9720	7.8570
0.9723	7.8570
0.9727	7.8560
0.9730	7.8560
0.9733	7.8560
0.9737	7.8560
0.9740	7.8560
0.9743	7.8560
0.9747	7.8550
0.9750	7.8550
0.9753	7.8540
0.9757	7.8540
0.9760	7.8540
0.9763	7.8540
0.9767	7.8540
0.9770	7.8540
0.9773	7.8540
0.9777	7.8530
0.9780	7.8530
0.9783	7.8530
0.9787	7.8530
0.9790	7.8530
0.9793	7.8530
0.9797	7.8530
0.9800	7.8520
0.9803	7.8520
0.9807	7.8520
0.9810	7.8520
0.9813	7.8520
0.9817	7.8520
0.9820	7.8520
0.9823	7.8520
0.9827	7.8510
0.9830	7.8510
0.9833	7.8510
0.9837	7.8510
0.9840	7.8510
0.9843	7.8510
0.9847	7.8510
0.9850	7.8510
0.9853	7.8510
0.9857	7.8500
0.9860	7.8500
0.9863	7.8500
0.9867	7.8500
0.9870	7.8500
0.9873	7.8500
0.9877	7.8500
0.9880	7.8490
0.9883	7.8490
0.9887	7.8490
0.9890	7.8490
0.9893	7.8490
0.9897	7.8490
0.9900	7.8490
0.9903	7.8490
0.9907	7.8490
0.9910	7.8490
0.9913	7.8490
0.9917	7.8490
0.9920	7.8490
0.9923	7.8490
0.9927	7.8490
0.9930	7.8490
0.9933	7.8490
0.9937	7.8490
0.9940	7.8490
0.9943	7.8490
0.9947	7.8490
0.9950	7.8490
0.9953	7.8490
0.9957	7.8490
0.9960	7.8490
0.9963	7.8490
0.9967	7.8500
0.9970	7.8500
0.9973	7.8500
0.9977	7.8500
0.9980	7.8490
0.9983	7.8490
0.9987	7.8490
0.9990	7.8490
0.9993	7.8490
0.9997	7.8490
1.0000	7.8490
1.0003	7.8490
1.0007	7.8480
1.0010	7.8480
1.0013	7.8480
1.0017	7.8480
1.0020	7.8480
1.0023	7.8480
1.0027	7.8480
1.0030	7.8480
1.0033	7.8470
1.0037	7.8470
1.0040	7.8470
1.0043	7.8470
1.0047	7.8470
1.0050	7.8470
1.0053	7.8470
1.0057	7.8470
1.0060	7.8470
1.0063	7.8470
1.0067	7.8470
1.0070	7.8470
1.0073	7.8470
1.0077	7.8470
1.0080	7.8470
1.0083	7.8470
1.0087	7.8470
1.0090	7.8470
1.0093	7.8470
1.0097	7.8470
1.0100	7.8470
1.0103	7.8470
1.0107	7.8470
1.0110	7.8470
1.0113	7.8470
1.0117	7.8470
1.0120	7.8470
1.0123	7.8460
1.0127	7.8460
1.0130	7.8460
1.0133	7.8460
1.0137	7.8460
1.0140	7.8460
1.0143	7.8460
1.0147	7.8460
1.0150	7.8460
1.0153	7.8460
1.0157	7.8460
1.0160	7.8450
1.0163	7.8450
1.0167	7.8450
1.0170	7.8450
1.0173	7.8450
1.0177	7.8450
1.0180	7.8450
1.0183	7.8450
1.0187	7.8450
1.0190	7.8450
1.0193	7.8450
1.0197	7.8450
1.0200	7.8450
1.0203	7.8450
1.0207	7.8450
1.0210	7.8450
1.0213	7.8450
1.0217	7.8450
1.0220	7.8450
1.0223	7.8450
1.0227	7.8450
1.0230	7.8450
1.0233	7.8450
1.0237	7.8450
1.0240	7.8450
1.0243	7.8450
1.0247	7.8450
1.0250	7.8450
1.0253	7.8450
1.0257	7.8440
1.0260	7.8440
1.0263	7.8440
1.0267	7.8440
1.0270	7.8440
1.0273	7.8440
1.0277	7.8440
1.0280	7.8440
1.0283	7.8440
1.0287	7.8440
1.0290	7.8440
1.0293	7.8450
1.0297	7.8450
1.0300	7.8450
1.0303	7.8450
1.0307	7.8450
1.0310	7.8450
1.0313	7.8450
1.0317	7.8450
1.0320	7.8450
1.0323	7.8450
1.0327	7.8450
1.0330	7.8450
1.0333	7.8450
1.0337	7.8450
1.0340	7.8450
1.0343	7.8450
1.0347	7.8460
1.0350	7.8460
1.0353	7.8460
1.0357	7.8460
1.0360	7.8460
1.0363	7.8460
1.0367	7.8460
1.0370	7.8460
1.0373	7.8460
1.0377	7.8470
1.0380	7.8470
1.0383	7.8470
1.0387	7.8470
1.0390	7.8470
1.0393	7.8470
1.0397	7.8480
1.0400	7.8480
1.0403	7.8480
1.0407	7.8480
1.0410	7.8480
1.0413	7.8480
1.0417	7.8490
1.0420	7.8490
1.0423	7.8490
1.0427	7.8500
1.0430	7.8500
1.0433	7.8500
1.0437	7.8500
1.0440	7.8500
1.0443	7.8510
1.0447	7.8510
1.0450	7.8510
1.0453	7.8520
1.0457	7.8520
1.0460	7.8520
1.0463	7.8520
1.0467	7.8530
1.0470	7.8530
1.0473	7.8530
1.0477	7.8540
1.0480	7.8540
1.0483	7.8550
1.0487	7.8550
1.0490	7.8560
1.0493	7.8560
1.0497	7.8560
1.0500	7.8570
1.0503	7.8580
1.0507	7.8580
1.0510	7.8590
1.0513	7.8590
1.0517	7.8600
1.0520	7.8600
1.0523	7.8610
1.0527	7.8610
1.0530	7.8620
1.0533	7.8620
1.0537	7.8630
1.0540	7.8630
1.0543	7.8640
1.0547	7.8640
1.0550	7.8650
1.0553	7.8650
1.0557	7.8660
1.0560	7.8660
1.0563	7.8670
1.0567	7.8670
1.0570	7.8680
1.0573	7.8680
1.0577	7.8680
1.0580	7.8690
1.0583	7.8690
1.0587	7.8700
1.0590	7.8700
1.0593	7.8710
1.0597	7.8710
1.0600	7.8710
1.0603	7.8720
1.0607	7.8720
1.0610	7.8730
1.0613	7.8730
1.0617	7.8730
1.0620	7.8730
1.0623	7.8740
1.0627	7.8740
1.0630	7.8740
1.0633	7.8750
1.0637	7.8750
1.0640	7.8750
1.0643	7.8750
1.0647	7.8760
1.0650	7.8760
1.0653	7.8760
1.0657	7.8760
1.0660	7.8760
1.0663	7.8760
1.0667	7.8770
1.0670	7.8770
1.0673	7.8770
1.0677	7.8770
1.0680	7.8770
1.0683	7.8770
1.0687	7.8770
1.0690	7.8770
1.0693	7.8770
1.0697	7.8770
1.0700	7.8770
1.0703	7.8760
1.0707	7.8760
1.0710	7.8760
1.0713	7.8760
1.0717	7.8760
1.0720	7.8760
1.0723	7.8750
1.0727	7.8750
1.0730	7.8750
1.0733	7.8750
1.0737	7.8740
1.0740	7.8740
1.0743	7.8740
1.0747	7.8730
1.0750	7.8730
1.0753	7.8730
1.0757	7.8720
1.0760	7.8720
1.0763	7.8710
1.0767	7.8710
1.0770	7.8710
1.0773	7.8700
1.0777	7.8700
1.0780	7.8690
1.0783	7.8690
1.0787	7.8680
1.0790	7.8680
1.0793	7.8670
1.0797	7.8670
1.0800	7.8660
1.0803	7.8660
1.0807	7.8650
1.0810	7.8650
1.0813	7.8640
1.0817	7.8640
1.0820	7.8630
1.0823	7.8630
1.0827	7.8620
1.0830	7.8620
1.0833	7.8610
1.0837	7.8610
1.0840	7.8600
1.0843	7.8600
1.0847	7.8590
1.0850	7.8580
1.0853	7.8580
1.0857	7.8570
1.0860	7.8570
1.0863	7.8560
1.0867	7.8550
1.0870	7.8550
1.0873	7.8540
1.0877	7.8540
1.0880	7.8530
1.0883	7.8530
1.0887	7.8520
1.0890	7.8520
1.0893	7.8510
1.0897	7.8510
1.0900	7.8500
1.0903	7.8500
1.0907	7.8490
1.0910	7.8490
1.0913	7.8480
1.0917	7.8480
1.0920	7.8480
1.0923	7.8470
1.0927	7.8470
1.0930	7.8460
1.0933	7.8460
1.0937	7.8460
1.0940	7.8450
1.0943	7.8450
1.0947	7.8450
1.0950	7.8440
1.0953	7.8440
1.0957	7.8440
1.0960	7.8430
1.0963	7.8430
1.0967	7.8430
1.0970	7.8420
1.0973	7.8420
1.0977	7.8420
1.0980	7.8420
1.0983	7.8410
1.0987	7.8410
1.0990	7.8410
1.0993	7.8410
1.0997	7.8400
1.1000	7.8400
1.1003	7.8400
1.1007	7.8400
1.1010	7.8400
1.1013	7.8400
1.1017	7.8390
1.1020	7.8390
1.1023	7.8390
1.1027	7.8390
1.1030	7.8390
1.1033	7.8390
1.1037	7.8390
1.1040	7.8380
1.1043	7.8380
1.1047	7.8380
1.1050	7.8380
1.1053	7.8380
1.1057	7.8380
1.1060	7.8380
1.1063	7.8370
1.1067	7.8370
1.1070	7.8370
1.1073	7.8370
1.1077	7.8370
1.1080	7.8370
1.1083	7.8370
1.1087	7.8360
1.1090	7.8360
1.1093	7.8360
1.1097	7.8360
1.1100	7.8360
1.1103	7.8360
1.1107	7.8360
1.1110	7.8350
1.1113	7.8350
1.1117	7.8350
1.1120	7.8350
1.1123	7.8350
1.1127	7.8350
1.1130	7.8350
1.1133	7.8350
1.1137	7.8350
1.1140	7.8340
1.1143	7.8340
1.1147	7.8340
1.1150	7.8340
1.1153	7.8340
1.1157	7.8340
1.1160	7.8330
1.1163	7.8330
1.1167	7.8330
1.1170	7.8330
1.1173	7.8330
1.1177	7.8320
1.1180	7.8320
1.1183	7.8320
1.1187	7.8320
1.1190	7.8320
1.1193	7.8320
1.1197	7.8320
1.1200	7.8310
1.1203	7.8310
1.1207	7.8310
1.1210	7.8310
1.1213	7.8310
1.1217	7.8310
1.1220	7.8310
1.1223	7.8310
1.1227	7.8310
1.1230	7.8310
1.1233	7.8310
1.1237	7.8310
1.1240	7.8310
1.1243	7.8300
1.1247	7.8310
1.1250	7.8310
1.1253	7.8310
1.1257	7.8310
1.1260	7.8300
1.1263	7.8300
1.1267	7.8300
1.1270	7.8310
1.1273	7.8310
1.1277	7.8300
1.1280	7.8300
1.1283	7.8300
1.1287	7.8300
1.1290	7.8300
1.1293	7.8300
1.1297	7.8300
1.1300	7.8300
1.1303	7.8300
1.1307	7.8300
1.1310	7.8300
1.1313	7.8300
1.1317	7.8300
1.1320	7.8300
1.1323	7.8300
1.1327	7.8310
1.1330	7.8310
1.1333	7.8300
1.1337	7.8300
1.1340	7.8300
1.1343	7.8300
1.1347	7.8300
1.1350	7.8300
1.1353	7.8300
1.1357	7.8300
1.1360	7.8300
1.1363	7.8300
1.1367	7.8300
1.1370	7.8300
1.1373	7.8300
1.1377	7.8300
1.1380	7.8300
1.1383	7.8300
1.1387	7.8300
1.1390	7.8300
1.1393	7.8300
1.1397	7.8300
1.1400	7.8300
1.1403	7.8300
1.1407	7.8300
1.1410	7.8300
1.1413	7.8300
1.1417	7.8290
1.1420	7.8290
1.1423	7.8290
1.1427	7.8290
1.1430	7.8290
1.1433	7.8290
1.1437	7.8290
1.1440	7.8290
1.1443	7.8290
1.1447	7.8290
1.1450	7.8290
1.1453	7.8280
1.1457	7.8280
1.1460	7.8280
1.1463	7.8280
1.1467	7.8280
1.1470	7.8280
1.1473	7.8280
1.1477	7.8280
1.1480	7.8280
1.1483	7.8280
1.1487	7.8280
1.1490	7.8280
1.1493	7.8280
1.1497	7.8280
1.1500	7.8280
1.1503	7.8280
1.1507	7.8280
1.1510	7.8280
1.1513	7.8280
1.1517	7.8280
1.1520	7.8290
1.1523	7.8290
1.1527	7.8290
1.1530	7.8290
1.1533	7.8290
1.1537	7.8290
1.1540	7.8290
1.1543	7.8290
1.1547	7.8290
1.1550	7.8290
1.1553	7.8290
1.1557	7.8300
1.1560	7.8300
1.1563	7.8300
1.1567	7.8300
1.1570	7.8300
1.1573	7.8300
1.1577	7.8300
1.1580	7.8300
1.1583	7.8300
1.1587	7.8300
1.1590	7.8300
1.1593	7.8300
1.1597	7.8300
1.1600	7.8310
1.1603	7.8310
1.1607	7.8310
1.1610	7.8310
1.1613	7.8320
1.1617	7.8320
1.1620	7.8320
1.1623	7.8330
1.1627	7.8330
1.1630	7.8330
1.1633	7.8330
1.1637	7.8340
1.1640	7.8340
1.1643	7.8350
1.1647	7.8350
1.1650	7.8350
1.1653	7.8350
1.1657	7.8350
1.1660	7.8360
1.1663	7.8360
1.1667	7.8360
1.1670	7.8360
1.1673	7.8370
1.1677	7.8370
1.1680	7.8370
1.1683	7.8380
1.1687	7.8380
1.1690	7.8380
1.1693	7.8390
1.1697	7.8390
1.1700	7.8400
1.1703	7.8400
1.1707	7.8410
1.1710	7.8410
1.1713	7.8410
1.1717	7.8420
1.1720	7.8430
1.1723	7.8440
1.1727	7.8440
1.1730	7.8450
1.1733	7.8460
1.1737	7.8460
1.1740	7.8470
1.1743	7.8480
1.1747	7.8490
1.1750	7.8500
1.1753	7.8510
1.1757	7.8520
1.1760	7.8540
1.1763	7.8550
1.1767	7.8570
1.1770	7.8580
1.1773	7.8600
1.1777	7.8620
1.1780	7.8640
1.1783	7.8660
1.1787	7.8680
1.1790	7.8710
1.1793	7.8730
1.1797	7.8760
1.1800	7.8790
1.1803	7.8830
1.1807	7.8870
1.1810	7.8900
1.1813	7.8950
1.1817	7.8990
1.1820	7.9040
1.1823	7.9100
1.1827	7.9160
1.1830	7.9230
1.1833	7.9300
1.1837	7.9370
1.1840	7.9460
1.1843	7.9550
1.1847	7.9650
1.1850	7.9770
1.1853	7.9880
1.1857	8.0010
1.1860	8.0150
1.1863	8.0290
1.1867	8.0450
1.1870	8.0620
1.1873	8.0810
1.1877	8.1010
1.1880	8.1230
1.1883	8.1470
1.1887	8.1720
1.1890	8.1990
1.1893	8.2280
1.1897	8.2590
1.1900	8.2940
1.1903	8.3300
1.1907	8.3700
1.1910	8.4120
1.1913	8.4570
1.1917	8.5060
1.1920	8.5580
1.1923	8.6140
1.1927	8.6740
1.1930	8.7380
1.1933	8.8070
1.1937	8.8810
1.1940	8.9590
1.1943	9.0430
1.1947	9.1330
1.1950	9.2280
1.1953	9.3300
1.1957	9.4390
1.1960	9.5550
1.1963	9.6780
1.1967	9.8090
1.1970	9.9490
1.1973	10.0970
1.1977	10.2540
1.1980	10.4210
1.1983	10.5990
1.1987	10.7860
1.1990	10.9850
1.1993	11.1950
1.1997	11.4180
1.2000	11.6530
1.2003	11.9020
1.2007	12.1640
1.2010	12.4410
1.2013	12.7330
1.2017	13.0560
1.2020	13.3800
1.2023	13.7200
1.2027	14.0780
1.2030	14.4530
1.2033	14.8480
1.2037	15.2610
1.2040	15.6950
1.2043	16.1480
1.2047	16.6230
1.2050	17.1200
1.2053	17.6400
1.2057	18.1830
1.2060	18.7490
1.2063	19.3390
1.2067	19.9540
1.2070	20.5950
1.2073	21.2620
1.2077	21.9550
1.2080	22.6760
1.2083	23.4240
1.2087	24.2000
1.2090	25.0040
1.2093	25.8380
1.2097	26.7000
1.2100	27.5920
1.2103	28.5130
1.2107	29.4650
1.2110	30.4470
1.2113	31.4600
1.2117	32.5030
1.2120	33.5770
1.2123	34.6820
1.2127	35.8170
1.2130	36.9830
1.2133	38.1790
1.2137	39.4060
1.2140	40.6630
1.2143	41.9490
1.2147	43.2650
1.2150	44.6100
1.2153	45.9830
1.2157	47.3840
1.2160	48.8120
1.2163	50.2660
1.2167	51.7460
1.2170	53.2520
1.2173	54.7810
1.2177	56.3330
1.2180	57.9080
1.2183	59.5240
1.2187	61.1410
1.2190	62.7760
1.2193	64.4290
1.2197	66.0980
1.2200	67.7820
1.2203	69.4790
1.2207	71.1880
1.2210	72.9070
1.2213	74.6340
1.2217	76.3690
1.2220	78.1090
1.2223	79.8520
1.2227	81.5970
1.2230	83.3410
1.2233	85.0820
1.2237	86.8200
1.2240	88.5510
1.2243	90.2740
1.2247	91.9870
1.2250	93.6890
1.2253	95.3750
1.2257	97.0460
1.2260	98.6990
1.2263	100.3320
1.2267	101.9430
1.2270	103.5300
1.2273	105.0910
1.2277	106.6240
1.2280	108.1260
1.2283	109.5980
1.2287	111.0350
1.2290	112.4370
1.2293	113.8010
1.2297	115.1250
1.2300	116.4090
1.2303	117.6500
1.2307	118.8460
1.2310	119.9970
1.2313	121.1000
1.2317	122.1540
1.2320	123.1580
1.2323	124.1100
1.2327	125.0080
1.2330	125.8520
1.2333	126.6410
1.2337	127.3730
1.2340	128.0480
1.2343	128.6640
1.2347	129.2220
1.2350	129.6580
1.2353	130.0950
1.2357	130.4700
1.2360	130.7840
1.2363	131.0360
1.2367	131.2260
1.2370	131.3540
1.2373	131.4200
1.2377	131.4240
1.2380	131.3650
1.2383	131.2450
1.2387	131.0620
1.2390	130.8190
1.2393	130.5160
1.2397	130.1530
1.2400	129.7310
1.2403	129.2500
1.2407	128.7120
1.2410	128.1170
1.2413	127.4660
1.2417	126.7610
1.2420	126.0020
1.2423	125.1910
1.2427	124.3290
1.2430	123.4170
1.2433	122.4560
1.2437	121.4480
1.2440	120.3940
1.2443	119.2970
1.2447	118.1560
1.2450	116.9740
1.2453	115.7530
1.2457	114.4950
1.2460	113.2010
1.2463	111.8730
1.2467	110.5120
1.2470	109.1210
1.2473	107.7010
1.2477	106.2540
1.2480	104.7820
1.2483	103.2860
1.2487	101.7690
1.2490	100.2330
1.2493	98.6800
1.2497	97.1110
1.2500	95.5270
1.2503	93.9320
1.2507	92.3260
1.2510	90.7110
1.2513	89.0890
1.2517	87.4590
1.2520	85.8290
1.2523	84.1970
1.2527	82.5640
1.2530	80.9330
1.2533	79.3040
1.2537	77.6800
1.2540	76.0620
1.2543	74.4510
1.2547	72.8490
1.2550	71.2570
1.2553	69.6760
1.2557	68.1080
1.2560	66.5520
1.2563	65.0120
1.2567	63.4870
1.2570	61.9790
1.2573	60.4880
1.2577	59.0160
1.2580	57.5640
1.2583	56.1310
1.2587	54.7200
1.2590	53.3290
1.2593	51.9610
1.2597	50.6170
1.2600	49.2950
1.2603	47.9970
1.2607	46.7240
1.2610	45.4750
1.2613	44.2520
1.2617	43.0530
1.2620	41.8800
1.2623	40.7330
1.2627	39.6110
1.2630	38.5160
1.2633	37.4460
1.2637	36.4030
1.2640	35.3850
1.2643	34.3930
1.2647	33.4270
1.2650	32.4870
1.2653	31.5720
1.2657	30.6830
1.2660	29.8190
1.2663	28.9790
1.2667	28.1650
1.2670	27.3740
1.2673	26.6080
1.2677	25.8650
1.2680	25.1460
1.2683	24.4730
1.2687	23.7990
1.2690	23.1480
1.2693	22.5180
1.2697	21.9100
1.2700	21.3220
1.2703	20.7550
1.2707	20.2090
1.2710	19.6810
1.2713	19.1730
1.2717	18.6830
1.2720	18.2110
1.2723	17.7570
1.2727	17.3210
1.2730	16.9010
1.2733	16.4970
1.2737	16.1090
1.2740	15.7360
1.2743	15.3780
1.2747	15.0350
1.2750	14.7050
1.2753	14.3890
1.2757	14.0860
1.2760	13.7960
1.2763	13.5180
1.2767	13.2510
1.2770	12.9960
1.2773	12.7520
1.2777	12.5180
1.2780	12.2950
1.2783	12.0810
1.2787	11.8770
1.2790	11.6820
1.2793	11.4950
1.2797	11.3180
1.2800	11.1480
1.2803	10.9860
1.2807	10.8310
1.2810	10.6840
1.2813	10.5430
1.2817	10.4090
1.2820	10.2810
1.2823	10.1600
1.2827	10.0440
1.2830	9.9330
1.2833	9.8280
1.2837	9.7280
1.2840	9.6330
1.2843	9.5430
1.2847	9.4570
1.2850	9.3790
1.2853	9.3010
1.2857	9.2270
1.2860	9.1570
1.2863	9.0910
1.2867	9.0270
1.2870	8.9670
1.2873	8.9100
1.2877	8.8560
1.2880	8.8040
1.2883	8.7560
1.2887	8.7100
1.2890	8.6660
1.2893	8.6240
1.2897	8.5850
1.2900	8.5470
1.2903	8.5120
1.2907	8.4780
1.2910	8.4470
1.2913	8.4170
1.2917	8.3880
1.2920	8.3610
1.2923	8.3360
1.2927	8.3110
1.2930	8.2880
1.2933	8.2670
1.2937	8.2470
1.2940	8.2270
1.2943	8.2090
1.2947	8.1910
1.2950	8.1750
1.2953	8.1600
1.2957	8.1450
1.2960	8.1310
1.2963	8.1180
1.2967	8.1060
1.2970	8.0940
1.2973	8.0830
1.2977	8.0720
1.2980	8.0620
1.2983	8.0530
1.2987	8.0440
1.2990	8.0360
1.2993	8.0280
1.2997	8.0200
1.3000	8.0130
1.3003	8.0060
1.3007	8.0000
1.3010	7.9940
1.3013	7.9880
1.3017	7.9830
1.3020	7.9780
1.3023	7.9730
1.3027	7.9680
1.3030	7.9640
1.3033	7.9600
1.3037	7.9560
1.3040	7.9520
1.3043	7.9480
1.3047	7.9450
1.3050	7.9420
1.3053	7.9380
1.3057	7.9360
1.3060	7.9330
1.3063	7.9300
1.3067	7.9280
1.3070	7.9250
1.3073	7.9230
1.3077	7.9210
1.3080	7.9190
1.3083	7.9170
1.3087	7.9150
1.3090	7.9130
1.3093	7.9110
1.3097	7.9100
1.3100	7.9080
1.3103	7.9060
1.3107	7.9050
1.3110	7.9030
1.3113	7.9020
1.3117	7.9010
1.3120	7.8990
1.3123	7.8980
1.3127	7.8970
1.3130	7.8950
1.3133	7.8940
1.3137	7.8930
1.3140	7.8920
1.3143	7.8910
1.3147	7.8900
1.3150	7.8890
1.3153	7.8890
1.3157	7.8880
1.3160	7.8870
1.3163	7.8870
1.3167	7.8860
1.3170	7.8860
1.3173	7.8850
1.3177	7.8840
1.3180	7.8840
1.3183	7.8830
1.3187	7.8830
1.3190	7.8820
1.3193	7.8820
1.3197	7.8810
1.3200	7.8810
1.3203	7.8800
1.3207	7.8800
1.3210	7.8790
1.3213	7.8790
1.3217	7.8790
1.3220	7.8780
1.3223	7.8780
1.3227	7.8770
1.3230	7.8770
1.3233	7.8770
1.3237	7.8760
1.3240	7.8760
1.3243	7.8760
1.3247	7.8750
1.3250	7.8750
1.3253	7.8740
1.3257	7.8740
1.3260	7.8740
1.3263	7.8730
1.3267	7.8730
1.3270	7.8730
1.3273	7.8730
1.3277	7.8720
1.3280	7.8720
1.3283	7.8710
1.3287	7.8710
1.3290	7.8710
1.3293	7.8710
1.3297	7.8710
1.3300	7.8700
1.3303	7.8700
1.3307	7.8700
1.3310	7.8690
1.3313	7.8690
1.3317	7.8690
1.3320	7.8690
1.3323	7.8680
1.3327	7.8680
1.3330	7.8680
1.3333	7.8670
1.3337	7.8670
1.3340	7.8660
1.3343	7.8660
1.3347	7.8660
1.3350	7.8650
1.3353	7.8650
1.3357	7.8650
1.3360	7.8640
1.3363	7.8640
1.3367	7.8640
1.3370	7.8640
1.3373	7.8630
1.3377	7.8630
1.3380	7.8630
1.3383	7.8630
1.3387	7.8620
1.3390	7.8620
1.3393	7.8620
1.3397	7.8620
1.3400	7.8610
1.3403	7.8610
1.3407	7.8610
1.3410	7.8610
1.3413	7.8600
1.3417	7.8600
1.3420	7.8600
1.3423	7.8600
1.3427	7.8600
1.3430	7.8590
1.3433	7.8590
1.3437	7.8590
1.3440	7.8590
1.3443	7.8590
1.3447	7.8580
1.3450	7.8580
1.3453	7.8580
1.3457	7.8580
1.3460	7.8580
1.3463	7.8580
1.3467	7.8570
1.3470	7.8570
1.3473	7.8570
1.3477	7.8570
1.3480	7.8570
1.3483	7.8570
1.3487	7.8560
1.3490	7.8560
1.3493	7.8560
1.3497	7.8560
1.3500	7.8560
1.3503	7.8550
1.3507	7.8550
1.3510	7.8550
1.3513	7.8540
1.3517	7.8540
1.3520	7.8540
1.3523	7.8540
1.3527	7.8540
1.3530	7.8540
1.3533	7.8540
1.3537	7.8540
1.3540	7.8540
1.3543	7.8530
1.3547	7.8530
1.3550	7.8530
1.3553	7.8530
1.3557	7.8530
1.3560	7.8530
1.3563	7.8530
1.3567	7.8530
1.3570	7.8520
1.3573	7.8520
1.3577	7.8520
1.3580	7.8520
1.3583	7.8520
1.3587	7.8520
1.3590	7.8520
1.3593	7.8510
1.3597	7.8510
1.3600	7.8510
1.3603	7.8510
1.3607	7.8510
1.3610	7.8510
1.3613	7.8510
1.3617	7.8510
1.3620	7.8500
1.3623	7.8500
1.3627	7.8500
1.3630	7.8500
1.3633	7.8500
1.3637	7.8500
1.3640	7.8500
1.3643	7.8500
1.3647	7.8500
1.3650	7.8490
1.3653	7.8500
1.3657	7.8500
1.3660	7.8500
1.3663	7.8500
1.3667	7.8490
1.3670	7.8490
1.3673	7.8490
1.3677	7.8490
1.3680	7.8490
1.3683	7.8490
1.3687	7.8490
1.3690	7.8490
1.3693	7.8490
1.3697	7.8490
1.3700	7.8490
1.3703	7.8490
1.3707	7.8490
1.3710	7.8490
1.3713	7.8490
1.3717	7.8490
1.3720	7.8490
1.3723	7.8490
1.3727	7.8480
1.3730	7.8480
1.3733	7.8480
1.3737	7.8480
1.3740	7.8480
1.3743	7.8480
1.3747	7.8480
1.3750	7.8480
1.3753	7.8480
1.3757	7.8480
1.3760	7.8480
1.3763	7.8480
1.3767	7.8480
1.3770	7.8480
1.3773	7.8480
1.3777	7.8480
1.3780	7.8480
1.3783	7.8480
1.3787	7.8480
1.3790	7.8480
1.3793	7.8480
1.3797	7.8480
1.3800	7.8470
1.3803	7.8470
1.3807	7.8470
1.3810	7.8470
1.3813	7.8470
1.3817	7.8470
1.3820	7.8470
1.3823	7.8470
1.3827	7.8470
1.3830	7.8470
1.3833	7.8470
1.3837	7.8470
1.3840	7.8470
1.3843	7.8470
1.3847	7.8460
1.3850	7.8460
1.3853	7.8460
1.3857	7.8460
1.3860	7.8460
1.3863	7.8460
1.3867	7.8460
1.3870	7.8460
1.3873	7.8460
1.3877	7.8450
1.3880	7.8450
1.3883	7.8450
1.3887	7.8450
1.3890	7.8450
1.3893	7.8450
1.3897	7.8450
1.3900	7.8450
1.3903	7.8450
1.3907	7.8450
1.3910	7.8440
1.3913	7.8440
1.3917	7.8440
1.3920	7.8440
1.3923	7.8440
1.3927	7.8440
1.3930	7.8440
1.3933	7.8440
1.3937	7.8430
1.3940	7.8430
1.3943	7.8430
1.3947	7.8430
1.3950	7.8430
1.3953	7.8430
1.3957	7.8430
1.3960	7.8430
1.3963	7.8430
1.3967	7.8430
1.3970	7.8430
1.3973	7.8430
1.3977	7.8420
1.3980	7.8420
1.3983	7.8420
1.3987	7.8420
1.3990	7.8420
1.3993	7.8420
1.3997	7.8420
1.4000	7.8420
1.4003	7.8420
1.4007	7.8420
1.4010	7.8420
1.4013	7.8420
1.4017	7.8420
1.4020	7.8420
1.4023	7.8420
1.4027	7.8420
1.4030	7.8420
1.4033	7.8420
1.4037	7.8420
1.4040	7.8420
1.4043	7.8420
1.4047	7.8420
1.4050	7.8420
1.4053	7.8420
1.4057	7.8410
1.4060	7.8410
1.4063	7.8410
1.4067	7.8410
1.4070	7.8410
1.4073	7.8410
1.4077	7.8410
1.4080	7.8410
1.4083	7.8410
1.4087	7.8410
1.4090	7.8410
1.4093	7.8410
1.4097	7.8410
1.4100	7.8410
1.4103	7.8410
1.4107	7.8400
1.4110	7.8400
1.4113	7.8400
1.4117	7.8400
1.4120	7.8400
1.4123	7.8400
1.4127	7.8400
1.4130	7.8400
1.4133	7.8400
1.4137	7.8400
1.4140	7.8400
1.4143	7.8390
1.4147	7.8390
1.4150	7.8390
1.4153	7.8390
1.4157	7.8390
1.4160	7.8400
1.4163	7.8390
1.4167	7.8390
1.4170	7.8390
1.4173	7.8390
1.4177	7.8390
1.4180	7.8390
1.4183	7.8390
1.4187	7.8390
1.4190	7.8390
1.4193	7.8390
1.4197	7.8390
1.4200	7.8390
1.4203	7.8390
1.4207	7.8390
1.4210	7.8390
1.4213	7.8390
1.4217	7.8390
1.4220	7.8390
1.4223	7.8390
1.4227	7.8390
1.4230	7.8390
1.4233	7.8390
1.4237	7.8400
1.4240	7.8400
1.4243	7.8400
1.4247	7.8400
1.4250	7.8400
1.4253	7.8400
1.4257	7.8400
1.4260	7.8400
1.4263	7.8400
1.4267	7.8400
1.4270	7.8400
1.4273	7.8400
1.4277	7.8400
1.4280	7.8400
1.4283	7.8390
1.4287	7.8390
1.4290	7.8390
1.4293	7.8390
1.4297	7.8390
1.4300	7.8390
1.4303	7.8390
1.4307	7.8390
1.4310	7.8380
1.4313	7.8380
1.4317	7.8380
1.4320	7.8380
1.4323	7.8380
1.4327	7.8380
1.4330	7.8380
1.4333	7.8380
1.4337	7.8380
1.4340	7.8370
1.4343	7.8370
1.4347	7.8370
1.4350	7.8370
1.4353	7.8370
1.4357	7.8370
1.4360	7.8360
1.4363	7.8360
1.4367	7.8360
1.4370	7.8360
1.4373	7.8360
1.4377	7.8360
1.4380	7.8360
1.4383	7.8350
1.4387	7.8350
1.4390	7.8350
1.4393	7.8350
1.4397	7.8350
1.4400	7.8340
1.4403	7.8340
1.4407	7.8340
1.4410	7.8340
1.4413	7.8340
1.4417	7.8330
1.4420	7.8330
1.4423	7.8330
1.4427	7.8330
1.4430	7.8330
1.4433	7.8330
1.4437	7.8330
1.4440	7.8330
1.4443	7.8330
1.4447	7.8330
1.4450	7.8330
1.4453	7.8330
1.4457	7.8330
1.4460	7.8330
1.4463	7.8330
1.4467	7.8320
1.4470	7.8320
1.4473	7.8320
1.4477	7.8320
1.4480	7.8320
1.4483	7.8320
1.4487	7.8320
1.4490	7.8320
1.4493	7.8320
1.4497	7.8320
1.4500	7.8320
1.4503	7.8320
1.4507	7.8320
1.4510	7.8320
1.4513	7.8320
1.4517	7.8320
1.4520	7.8320
1.4523	7.8320
1.4527	7.8320
1.4530	7.8320
1.4533	7.8320
1.4537	7.8320
1.4540	7.8320
1.4543	7.8320
1.4547	7.8320
1.4550	7.8320
1.4553	7.8320
1.4557	7.8320
1.4560	7.8320
1.4563	7.8320
1.4567	7.8320
1.4570	7.8320
1.4573	7.8320
1.4577	7.8320
1.4580	7.8320
1.4583	7.8330
1.4587	7.8330
1.4590	7.8330
1.4593	7.8320
1.4597	7.8330
1.4600	7.8330
1.4603	7.8330
1.4607	7.8330
1.4610	7.8330
1.4613	7.8330
1.4617	7.8330
1.4620	7.8330
1.4623	7.8330
1.4627	7.8330
1.4630	7.8330
1.4633	7.8330
1.4637	7.8330
1.4640	7.8330
1.4643	7.8330
1.4647	7.8330
1.4650	7.8330
1.4653	7.8330
1.4657	7.8330
1.4660	7.8340
1.4663	7.8340
1.4667	7.8340
1.4670	7.8340
1.4673	7.8340
1.4677	7.8340
1.4680	7.8340
1.4683	7.8340
1.4687	7.8340
1.4690	7.8340
1.4693	7.8340
1.4697	7.8340
1.4700	7.8340
1.4703	7.8340
1.4707	7.8340
1.4710	7.8340
1.4713	7.8340
1.4717	7.8340
1.4720	7.8340
1.4723	7.8350
1.4727	7.8340
1.4730	7.8340
1.4733	7.8340
1.4737	7.8340
1.4740	7.8340
1.4743	7.8350
1.4747	7.8350
1.4750	7.8340
1.4753	7.8340
1.4757	7.8340
1.4760	7.8340
1.4763	7.8340
1.4767	7.8350
1.4770	7.8350
1.4773	7.8350
1.4777	7.8350
1.4780	7.8350
1.4783	7.8350
1.4787	7.8350
1.4790	7.8350
1.4793	7.8350
1.4797	7.8350
1.4800	7.8350
1.4803	7.8350
1.4807	7.8350
1.4810	7.8350
1.4813	7.8350
1.4817	7.8350
1.4820	7.8350
1.4823	7.8360
1.4827	7.8360
1.4830	7.8350
1.4833	7.8350
1.4837	7.8350
1.4840	7.8360
1.4843	7.8360
1.4847	7.8360
1.4850	7.8360
1.4853	7.8360
1.4857	7.8350
1.4860	7.8350
1.4863	7.8360
1.4867	7.8360
1.4870	7.8360
1.4873	7.8350
1.4877	7.8350
1.4880	7.8350
1.4883	7.8350
1.4887	7.8350
1.4890	7.8350
1.4893	7.8350
1.4897	7.8350
1.4900	7.8350
1.4903	7.8340
1.4907	7.8340
1.4910	7.8340
1.4913	7.8340
1.4917	7.8340
1.4920	7.8340
1.4923	7.8340
1.4927	7.8340
1.4930	7.8330
1.4933	7.8330
1.4937	7.8330
1.4940	7.8330
1.4943	7.8330
1.4947	7.8330
1.4950	7.8330
1.4953	7.8330
1.4957	7.8320
1.4960	7.8330
1.4963	7.8330
1.4967	7.8330
1.4970	7.8320
1.4973	7.8320
1.4977	7.8320
1.4980	7.8320
1.4983	7.8320
1.4987	7.8320
1.4990	7.8320
1.4993	7.8320
1.4997	7.8320
1.5000	7.8320
1.5003	7.8320
1.5007	7.8320
1.5010	7.8320
1.5013	7.8310
1.5017	7.8320
1.5020	7.8320
1.5023	7.8320
1.5027	7.8320
1.5030	7.8320
1.5033	7.8320
1.5037	7.8320
1.5040	7.8320
1.5043	7.8330
1.5047	7.8330
1.5050	7.8330
1.5053	7.8330
1.5057	7.8330
1.5060	7.8330
1.5063	7.8330
1.5067	7.8330
1.5070	7.8330
1.5073	7.8340
1.5077	7.8340
1.5080	7.8340
1.5083	7.8340
1.5087	7.8340
1.5090	7.8340
1.5093	7.8340
1.5097	7.8340
1.5100	7.8350
1.5103	7.8350
1.5107	7.8350
1.5110	7.8350
1.5113	7.8350
1.5117	7.8350
1.5120	7.8350
1.5123	7.8350
1.5127	7.8350
1.5130	7.8350
1.5133	7.8350
1.5137	7.8360
1.5140	7.8360
1.5143	7.8360
1.5147	7.8360
1.5150	7.8350
1.5153	7.8360
1.5157	7.8360
1.5160	7.8360
1.5163	7.8360
1.5167	7.8360
1.5170	7.8360
1.5173	7.8360
1.5177	7.8360
1.5180	7.8360
1.5183	7.8360
1.5187	7.8360
1.5190	7.8360
1.5193	7.8360
1.5197	7.8360
1.5200	7.8360
1.5203	7.8360
1.5207	7.8360
1.5210	7.8370
1.5213	7.8370
1.5217	7.8370
1.5220	7.8370
1.5223	7.8370
1.5227	7.8370
1.5230	7.8370
1.5233	7.8380
1.5237	7.8380
1.5240	7.8380
1.5243	7.8390
1.5247	7.8390
1.5250	7.8390
1.5253	7.8390
1.5257	7.8390
1.5260	7.8400
1.5263	7.8400
1.5267	7.8400
1.5270	7.8400
1.5273	7.8410
1.5277	7.8410
1.5280	7.8410
1.5283	7.8420
1.5287	7.8420
1.5290	7.8420
1.5293	7.8430
1.5297	7.8430
1.5300	7.8440
1.5303	7.8440
1.5307	7.8450
1.5310	7.8450
1.5313	7.8460
1.5317	7.8470
1.5320	7.8470
1.5323	7.8480
1.5327	7.8490
1.5330	7.8490
1.5333	7.8500
1.5337	7.8510
1.5340	7.8520
1.5343	7.8530
1.5347	7.8530
1.5350	7.8540
1.5353	7.8550
1.5357	7.8560
1.5360	7.8570
1.5363	7.8580
1.5367	7.8590
1.5370	7.8600
1.5373	7.8610
1.5377	7.8620
1.5380	7.8630
1.5383	7.8640
1.5387	7.8650
1.5390	7.8660
1.5393	7.8670
1.5397	7.8680
1.5400	7.8700
1.5403	7.8710
1.5407	7.8720
1.5410	7.8730
1.5413	7.8740
1.5417	7.8760
1.5420	7.8770
1.5423	7.8780
1.5427	7.8790
1.5430	7.8810
1.5433	7.8820
1.5437	7.8840
1.5440	7.8860
1.5443	7.8870
1.5447	7.8880
1.5450	7.8900
1.5453	7.8910
1.5457	7.8930
1.5460	7.8950
1.5463	7.8960
1.5467	7.8970
1.5470	7.8990
1.5473	7.9000
1.5477	7.9020
1.5480	7.9040
1.5483	7.9050
1.5487	7.9070
1.5490	7.9080
1.5493	7.9100
1.5497	7.9120
1.5500	7.9130
1.5503	7.9150
1.5507	7.9170
1.5510	7.9180
1.5513	7.9200
1.5517	7.9220
1.5520	7.9240
1.5523	7.9250
1.5527	7.9270
1.5530	7.9290
1.5533	7.9310
1.5537	7.9320
1.5540	7.9340
1.5543	7.9360
1.5547	7.9370
1.5550	7.9390
1.5553	7.9410
1.5557	7.9430
1.5560	7.9440
1.5563	7.9460
1.5567	7.9480
1.5570	7.9490
1.5573	7.9510
1.5577	7.9530
1.5580	7.9540
1.5583	7.9560
1.5587	7.9580
1.5590	7.9590
1.5593	7.9610
1.5597	7.9620
1.5600	7.9640
1.5603	7.9650
1.5607	7.9660
1.5610	7.9680
1.5613	7.9700
1.5617	7.9710
1.5620	7.9720
1.5623	7.9730
1.5627	7.9750
1.5630	7.9760
1.5633	7.9770
1.5637	7.9780
1.5640	7.9790
1.5643	7.9800
1.5647	7.9810
1.5650	7.9820
1.5653	7.9830
1.5657	7.9840
1.5660	7.9840
1.5663	7.9850
1.5667	7.9860
1.5670	7.9860
1.5673	7.9870
1.5677	7.9870
1.5680	7.9870
1.5683	7.9880
1.5687	7.9880
1.5690	7.9890
1.5693	7.9890
1.5697	7.9890
1.5700	7.9890
1.5703	7.9890
1.5707	7.9890
1.5710	7.9890
1.5713	7.9890
1.5717	7.9890
1.5720	7.9880
1.5723	7.9880
1.5727	7.9880
1.5730	7.9870
1.5733	7.9870
1.5737	7.9870
1.5740	7.9860
1.5743	7.9860
1.5747	7.9850
1.5750	7.9840
1.5753	7.9830
1.5757	7.9830
1.5760	7.9820
1.5763	7.9810
1.5767	7.9800
1.5770	7.9790
1.5773	7.9780
1.5777	7.9770
1.5780	7.9760
1.5783	7.9740
1.5787	7.9730
1.5790	7.9730
1.5793	7.9720
1.5797	7.9700
1.5800	7.9690
1.5803	7.9680
1.5807	7.9670
1.5810	7.9660
1.5813	7.9650
1.5817	7.9640
1.5820	7.9630
1.5823	7.9610
1.5827	7.9600
1.5830	7.9590
1.5833	7.9580
1.5837	7.9570
1.5840	7.9560
1.5843	7.9560
1.5847	7.9550
1.5850	7.9540
1.5853	7.9530
1.5857	7.9520
1.5860	7.9520
1.5863	7.9510
1.5867	7.9510
1.5870	7.9510
1.5873	7.9510
1.5877	7.9500
1.5880	7.9500
1.5883	7.9510
1.5887	7.9510
1.5890	7.9520
1.5893	7.9530
1.5897	7.9540
1.5900	7.9550
1.5903	7.9570
1.5907	7.9580
1.5910	7.9600
1.5913	7.9630
1.5917	7.9650
1.5920	7.9690
1.5923	7.9720
1.5927	7.9760
1.5930	7.9800
1.5933	7.9850
1.5937	7.9900
1.5940	7.9960
1.5943	8.0020
1.5947	8.0090
1.5950	8.0160
1.5953	8.0240
1.5957	8.0330
1.5960	8.0430
1.5963	8.0530
1.5967	8.0640
1.5970	8.0760
1.5973	8.0890
1.5977	8.1030
1.5980	8.1190
1.5983	8.1350
1.5987	8.1520
1.5990	8.1710
1.5993	8.1910
1.5997	8.2120
1.6000	8.2360
1.6003	8.2600
1.6007	8.2860
1.6010	8.3140
1.6013	8.3440
1.6017	8.3780
1.6020	8.4120
1.6023	8.4480
1.6027	8.4860
1.6030	8.5260
1.6033	8.5690
1.6037	8.6140
1.6040	8.6630
1.6043	8.7140
1.6047	8.7680
1.6050	8.8250
1.6053	8.8850
1.6057	8.9490
1.6060	9.0160
1.6063	9.0860
1.6067	9.1610
1.6070	9.2390
1.6073	9.3220
1.6077	9.4090
1.6080	9.5010
1.6083	9.5970
1.6087	9.6980
1.6090	9.8030
1.6093	9.9140
1.6097	10.0300
1.6100	10.1520
1.6103	10.2800
1.6107	10.4130
1.6110	10.5520
1.6113	10.6980
1.6117	10.8500
1.6120	11.0090
1.6123	11.1740
1.6127	11.3470
1.6130	11.5270
1.6133	11.7140
1.6137	11.9080
1.6140	12.1100
1.6143	12.3200
1.6147	12.5390
1.6150	12.7660
1.6153	13.0010
1.6157	13.2440
1.6160	13.4960
1.6163	13.7570
1.6167	14.0270
1.6170	14.3060
1.6173	14.5940
1.6177	14.8920
1.6180	15.1990
1.6183	15.5250
1.6187	15.8510
1.6190	16.1870
1.6193	16.5320
1.6197	16.8870
1.6200	17.2530
1.6203	17.6270
1.6207	18.0120
1.6210	18.4060
1.6213	18.8100
1.6217	19.2230
1.6220	19.6460
1.6223	20.0790
1.6227	20.5210
1.6230	20.9720
1.6233	21.4320
1.6237	21.9010
1.6240	22.3780
1.6243	22.8640
1.6247	23.3590
1.6250	23.8610
1.6253	24.3710
1.6257	24.8890
1.6260	25.4140
1.6263	25.9450
1.6267	26.4820
1.6270	27.0260
1.6273	27.5760
1.6277	28.1310
1.6280	28.6910
1.6283	29.2550
1.6287	29.8230
1.6290	30.3940
1.6293	30.9680
1.6297	31.5450
1.6300	32.1240
1.6303	32.7040
1.6307	33.2850
1.6310	33.8670
1.6313	34.4480
1.6317	35.0270
1.6320	35.6050
1.6323	36.1820
1.6327	36.7550
1.6330	37.3250
1.6333	37.8900
1.6337	38.4510
1.6340	39.0060
1.6343	39.5550
1.6347	40.0970
1.6350	40.6240
1.6353	41.1510
1.6357	41.6690
1.6360	42.1770
1.6363	42.6760
1.6367	43.1640
1.6370	43.6400
1.6373	44.1040
1.6377	44.5570
1.6380	44.9960
1.6383	45.4220
1.6387	45.8330
1.6390	46.2290
1.6393	46.6110
1.6397	46.9760
1.6400	47.3250
1.6403	47.6570
1.6407	47.9730
1.6410	48.2710
1.6413	48.5500
1.6417	48.8120
1.6420	49.0550
1.6423	49.2790
1.6427	49.4840
1.6430	49.6700
1.6433	49.8360
1.6437	49.9820
1.6440	50.1080
1.6443	50.2130
1.6447	50.2980
1.6450	50.3630
1.6453	50.4070
1.6457	50.4310
1.6460	50.4340
1.6463	50.4160
1.6467	50.3780
1.6470	50.3200
1.6473	50.2410
1.6477	50.1430
1.6480	50.0240
1.6483	49.8860
1.6487	49.7280
1.6490	49.5510
1.6493	49.3560
1.6497	49.1420
1.6500	48.9090
1.6503	48.6590
1.6507	48.3920
1.6510	48.1070
1.6513	47.8060
1.6517	47.4740
1.6520	47.1410
1.6523	46.7930
1.6527	46.4300
1.6530	46.0520
1.6533	45.6620
1.6537	45.2580
1.6540	44.8420
1.6543	44.4130
1.6547	43.9730
1.6550	43.5220
1.6553	43.0610
1.6557	42.5900
1.6560	42.1100
1.6563	41.6220
1.6567	41.1250
1.6570	40.6220
1.6573	40.1110
1.6577	39.5950
1.6580	39.0730
1.6583	38.5450
1.6587	38.0140
1.6590	37.4780
1.6593	36.9390
1.6597	36.3970
1.6600	35.8530
1.6603	35.3080
1.6607	34.7620
1.6610	34.2150
1.6613	33.6680
1.6617	33.1220
1.6620	32.5760
1.6623	32.0320
1.6627	31.4900
1.6630	30.9500
1.6633	30.4130
1.6637	29.8790
1.6640	29.3490
1.6643	28.8220
1.6647	28.3000
1.6650	27.7830
1.6653	27.2710
1.6657	26.7640
1.6660	26.2630
1.6663	25.7680
1.6667	25.2780
1.6670	24.7950
1.6673	24.3190
1.6677	23.8500
1.6680	23.3880
1.6683	22.9400
1.6687	22.4930
1.6690	22.0530
1.6693	21.6210
1.6697	21.1970
1.6700	20.7810
1.6703	20.3720
1.6707	19.9720
1.6710	19.5810
1.6713	19.1970
1.6717	18.8220
1.6720	18.4550
1.6723	18.0970
1.6727	17.7470
1.6730	17.4050
1.6733	17.0710
1.6737	16.7460
1.6740	16.4290
1.6743	16.1210
1.6747	15.8200
1.6750	15.5270
1.6753	15.2430
1.6757	14.9660
1.6760	14.6980
1.6763	14.4370
1.6767	14.1840
1.6770	13.9380
1.6773	13.7000
1.6777	13.4690
1.6780	13.2450
1.6783	13.0280
1.6787	12.8190
1.6790	12.6160
1.6793	12.4200
1.6797	12.2300
1.6800	12.0470
1.6803	11.8700
1.6807	11.6990
1.6810	11.5350
1.6813	11.3760
1.6817	11.2230
1.6820	11.0750
1.6823	10.9330
1.6827	10.7960
1.6830	10.6640
1.6833	10.5380
1.6837	10.4160
1.6840	10.2980
1.6843	10.1860
1.6847	10.0780
1.6850	9.9780
1.6853	9.8780
1.6857	9.7820
1.6860	9.6900
1.6863	9.6020
1.6867	9.5180
1.6870	9.4370
1.6873	9.3600
1.6877	9.2860
1.6880	9.2150
1.6883	9.1470
1.6887	9.0820
1.6890	9.0200
1.6893	8.9610
1.6897	8.9050
1.6900	8.8510
1.6903	8.8000
1.6907	8.7510
1.6910	8.7040
1.6913	8.6600
1.6917	8.6170
1.6920	8.5770
1.6923	8.5380
1.6927	8.5020
1.6930	8.4670
1.6933	8.4340
1.6937	8.4020
1.6940	8.3730
1.6943	8.3440
1.6947	8.3170
1.6950	8.2920
1.6953	8.2670
1.6957	8.2440
1.6960	8.2230
1.6963	8.2020
1.6967	8.1820
1.6970	8.1640
1.6973	8.1460
1.6977	8.1300
1.6980	8.1140
1.6983	8.0990
1.6987	8.0850
1.6990	8.0710
1.6993	8.0590
1.6997	8.0470
1.7000	8.0360
1.7003	8.0250
1.7007	8.0150
1.7010	8.0060
1.7013	7.9970
1.7017	7.9890
1.7020	7.9810
1.7023	7.9740
1.7027	7.9670
1.7030	7.9600
1.7033	7.9540
1.7037	7.9490
1.7040	7.9430
1.7043	7.9380
1.7047	7.9330
1.7050	7.9290
1.7053	7.9240
1.7057	7.9200
1.7060	7.9160
1.7063	7.9130
1.7067	7.9090
1.7070	7.9060
1.7073	7.9030
1.7077	7.9000
1.7080	7.8980
1.7083	7.8950
1.7087	7.8930
1.7090	7.8910
1.7093	7.8890
1.7097	7.8870
1.7100	7.8850
1.7103	7.8830
1.7107	7.8820
1.7110	7.8800
1.7113	7.8790
1.7117	7.8770
1.7120	7.8760
1.7123	7.8750
1.7127	7.8740
1.7130	7.8730
1.7133	7.8720
1.7137	7.8710
1.7140	7.8700
1.7143	7.8690
1.7147	7.8680
1.7150	7.8680
1.7153	7.8670
1.7157	7.8660
1.7160	7.8650
1.7163	7.8650
1.7167	7.8640
1.7170	7.8630
1.7173	7.8630
1.7177	7.8620
1.7180	7.8620
1.7183	7.8610
1.7187	7.8610
1.7190	7.8600
1.7193	7.8600
1.7197	7.8590
1.7200	7.8590
1.7203	7.8580
1.7207	7.8580
1.7210	7.8580
1.7213	7.8570
1.7217	7.8570
1.7220	7.8570
1.7223	7.8560
1.7227	7.8560
1.7230	7.8550
1.7233	7.8550
1.7237	7.8550
1.7240	7.8540
1.7243	7.8540
1.7247	7.8540
1.7250	7.8540
1.7253	7.8530
1.7257	7.8530
1.7260	7.8530
1.7263	7.8530
1.7267	7.8520
1.7270	7.8520
1.7273	7.8520
1.7277	7.8510
1.7280	7.8510
1.7283	7.8510
1.7287	7.8510
1.7290	7.8510
1.7293	7.8500
1.7297	7.8500
1.7300	7.8500
1.7303	7.8500
1.7307	7.8490
1.7310	7.8490
1.7313	7.8490
1.7317	7.8480
1.7320	7.8480
1.7323	7.8480
1.7327	7.8480
1.7330	7.8480
1.7333	7.8470
1.7337	7.8470
1.7340	7.8470
1.7343	7.8470
1.7347	7.8460
1.7350	7.8460
1.7353	7.8460
1.7357	7.8450
1.7360	7.8450
1.7363	7.8450
1.7367	7.8450
1.7370	7.8440
1.7373	7.8440
1.7377	7.8440
1.7380	7.8440
1.7383	7.8430
1.7387	7.8430
1.7390	7.8430
1.7393	7.8430
1.7397	7.8420
1.7400	7.8420
1.7403	7.8420
1.7407	7.8410
1.7410	7.8410
1.7413	7.8410
1.7417	7.8410
1.7420	7.8400
1.7423	7.8400
1.7427	7.8400
1.7430	7.8390
1.7433	7.8390
1.7437	7.8390
1.7440	7.8390
1.7443	7.8380
1.7447	7.8380
1.7450	7.8380
1.7453	7.8380
1.7457	7.8370
1.7460	7.8370
1.7463	7.8370
1.7467	7.8360
1.7470	7.8360
1.7473	7.8360
1.7477	7.8360
1.7480	7.8360
1.7483	7.8360
1.7487	7.8350
1.7490	7.8350
1.7493	7.8340
1.7497	7.8340
1.7500	7.8340
1.7503	7.8340
1.7507	7.8340
1.7510	7.8340
1.7513	7.8330
1.7517	7.8330
1.7520	7.8330
1.7523	7.8330
1.7527	7.8320
1.7530	7.8320
1.7533	7.8320
1.7537	7.8320
1.7540	7.8320
1.7543	7.8320
1.7547	7.8310
1.7550	7.8310
1.7553	7.8310
1.7557	7.8310
1.7560	7.8310
1.7563	7.8310
1.7567	7.8310
1.7570	7.8310
1.7573	7.8310
1.7577	7.8310
1.7580	7.8310
1.7583	7.8310
1.7587	7.8300
1.7590	7.8300
1.7593	7.8310
1.7597	7.8310
1.7600	7.8310
1.7603	7.8310
1.7607	7.8310
1.7610	7.8310
1.7613	7.8310
1.7617	7.8310
1.7620	7.8310
1.7623	7.8310
1.7627	7.8310
1.7630	7.8310
1.7633	7.8310
1.7637	7.8320
1.7640	7.8320
1.7643	7.8320
1.7647	7.8320
1.7650	7.8320
1.7653	7.8320
1.7657	7.8330
1.7660	7.8330
1.7663	7.8330
1.7667	7.8330
1.7670	7.8340
1.7673	7.8340
1.7677	7.8350
1.7680	7.8350
1.7683	7.8360
1.7687	7.8360
1.7690	7.8360
1.7693	7.8370
1.7697	7.8370
1.7700	7.8380
1.7703	7.8380
1.7707	7.8390
1.7710	7.8390
1.7713	7.8390
1.7717	7.8400
1.7720	7.8400
1.7723	7.8410
1.7727	7.8410
1.7730	7.8420
1.7733	7.8420
1.7737	7.8430
1.7740	7.8430
1.7743	7.8440
1.7747	7.8440
1.7750	7.8450
1.7753	7.8460
1.7757	7.8460
1.7760	7.8470
1.7763	7.8480
1.7767	7.8480
1.7770	7.8490
1.7773	7.8490
1.7777	7.8500
1.7780	7.8510
1.7783	7.8510
1.7787	7.8520
1.7790	7.8530
1.7793	7.8530
1.7797	7.8540
1.7800	7.8550
1.7803	7.8560
1.7807	7.8560
1.7810	7.8570
1.7813	7.8580
1.7817	7.8590
1.7820	7.8600
1.7823	7.8610
1.7827	7.8610
1.7830	7.8620
1.7833	7.8630
1.7837	7.8640
1.7840	7.8650
1.7843	7.8660
1.7847	7.8670
1.7850	7.8680
1.7853	7.8690
1.7857	7.8700
1.7860	7.8710
1.7863	7.8710
1.7867	7.8720
1.7870	7.8730
1.7873	7.8740
1.7877	7.8750
1.7880	7.8760
1.7883	7.8770
1.7887	7.8780
1.7890	7.8790
1.7893	7.8800
1.7897	7.8810
1.7900	7.8820
1.7903	7.8820
1.7907	7.8830
1.7910	7.8840
1.7913	7.8850
1.7917	7.8860
1.7920	7.8870
1.7923	7.8870
1.7927	7.8880
1.7930	7.8890
1.7933	7.8900
1.7937	7.8910
1.7940	7.8910
1.7943	7.8920
1.7947	7.8930
1.7950	7.8940
1.7953	7.8950
1.7957	7.8950
1.7960	7.8960
1.7963	7.8970
1.7967	7.8980
1.7970	7.8980
1.7973	7.8990
1.7977	7.9000
1.7980	7.9010
1.7983	7.9010
1.7987	7.9020
1.7990	7.9030
1.7993	7.9040
1.7997	7.9040
1.8000	7.9050
1.8003	7.9050
1.8007	7.9060
1.8010	7.9060
1.8013	7.9070
1.8017	7.9070
1.8020	7.9080
1.8023	7.9080
1.8027	7.9080
1.8030	7.9090
1.8033	7.9090
1.8037	7.9100
1.8040	7.9100
1.8043	7.9100
1.8047	7.9110
1.8050	7.9110
1.8053	7.9110
1.8057	7.9110
1.8060	7.9120
1.8063	7.9120
1.8067	7.9120
1.8070	7.9130
1.8073	7.9130
1.8077	7.9130
1.8080	7.9130
1.8083	7.9130
1.8087	7.9130
1.8090	7.9130
1.8093	7.9140
1.8097	7.9140
1.8100	7.9140
1.8103	7.9140
1.8107	7.9130
1.8110	7.9130
1.8113	7.9130
1.8117	7.9130
1.8120	7.9130
1.8123	7.9130
1.8127	7.9120
1.8130	7.9120
1.8133	7.9120
1.8137	7.9110
1.8140	7.9110
1.8143	7.9110
1.8147	7.9100
1.8150	7.9100
1.8153	7.9090
1.8157	7.9090
1.8160	7.9080
1.8163	7.9080
1.8167	7.9070
1.8170	7.9070
1.8173	7.9060
1.8177	7.9050
1.8180	7.9050
1.8183	7.9040
1.8187	7.9030
1.8190	7.9030
1.8193	7.9020
1.8197	7.9020
1.8200	7.9010
1.8203	7.9000
1.8207	7.8990
1.8210	7.8980
1.8213	7.8970
1.8217	7.8970
1.8220	7.8960
1.8223	7.8950
1.8227	7.8940
1.8230	7.8930
1.8233	7.8920
1.8237	7.8910
1.8240	7.8910
1.8243	7.8900
1.8247	7.8890
1.8250	7.8880
1.8253	7.8870
1.8257	7.8860
1.8260	7.8850
1.8263	7.8840
1.8267	7.8830
1.8270	7.8820
1.8273	7.8810
1.8277	7.8800
1.8280	7.8790
1.8283	7.8780
1.8287	7.8770
1.8290	7.8760
1.8293	7.8750
1.8297	7.8740
1.8300	7.8730
1.8303	7.8720
1.8307	7.8710
1.8310	7.8700
1.8313	7.8690
1.8317	7.8680
1.8320	7.8670
1.8323	7.8670
1.8327	7.8660
1.8330	7.8650
1.8333	7.8640
1.8337	7.8630
1.8340	7.8620
1.8343	7.8610
1.8347	7.8600
1.8350	7.8590
1.8353	7.8580
1.8357	7.8580
1.8360	7.8570
1.8363	7.8560
1.8367	7.8550
1.8370	7.8540
1.8373	7.8540
1.8377	7.8530
1.8380	7.8520
1.8383	7.8510
1.8387	7.8510
1.8390	7.8500
1.8393	7.8490
1.8397	7.8490
1.8400	7.8480
1.8403	7.8470
1.8407	7.8470
1.8410	7.8460
1.8413	7.8450
1.8417	7.8450
1.8420	7.8440
1.8423	7.8440
1.8427	7.8430
1.8430	7.8430
1.8433	7.8420
1.8437	7.8420
1.8440	7.8410
1.8443	7.8410
1.8447	7.8400
1.8450	7.8400
1.8453	7.8390
1.8457	7.8390
1.8460	7.8380
1.8463	7.8380
1.8467	7.8370
1.8470	7.8370
1.8473	7.8370
1.8477	7.8360
1.8480	7.8360
1.8483	7.8350
1.8487	7.8350
1.8490	7.8340
1.8493	7.8340
1.8497	7.8340
1.8500	7.8330
1.8503	7.8330
1.8507	7.8330
1.8510	7.8320
1.8513	7.8320
1.8517	7.8310
1.8520	7.8310
1.8523	7.8310
1.8527	7.8310
1.8530	7.8300
1.8533	7.8300
1.8537	7.8300
1.8540	7.8300
1.8543	7.8290
1.8547	7.8290
1.8550	7.8290
1.8553	7.8290
1.8557	7.8290
1.8560	7.8280
1.8563	7.8280
1.8567	7.8280
1.8570	7.8280
1.8573	7.8280
1.8577	7.8280
1.8580	7.8270
1.8583	7.8270
1.8587	7.8270
1.8590	7.8270
1.8593	7.8270
1.8597	7.8270
1.8600	7.8260
1.8603	7.8260
1.8607	7.8260
1.8610	7.8260
1.8613	7.8260
1.8617	7.8260
1.8620	7.8260
1.8623	7.8260
1.8627	7.8250
1.8630	7.8250
1.8633	7.8250
1.8637	7.8250
1.8640	7.8250
1.8643	7.8250
1.8647	7.8250
1.8650	7.8250
1.8653	7.8250
1.8657	7.8250
1.8660	7.8250
1.8663	7.8250
1.8667	7.8250
1.8670	7.8240
1.8673	7.8240
1.8677	7.8240
1.8680	7.8240
1.8683	7.8240
1.8687	7.8240
1.8690	7.8240
1.8693	7.8240
1.8697	7.8240
1.8700	7.8240
1.8703	7.8240
1.8707	7.8240
1.8710	7.8240
1.8713	7.8240
1.8717	7.8240
1.8720	7.8230
1.8723	7.8230
1.8727	7.8230
1.8730	7.8230
1.8733	7.8230
1.8737	7.8230
1.8740	7.8230
1.8743	7.8230
1.8747	7.8230
1.8750	7.8230
1.8753	7.8230
1.8757	7.8230
1.8760	7.8230
1.8763	7.8230
1.8767	7.8230
1.8770	7.8230
1.8773	7.8230
1.8777	7.8230
1.8780	7.8230
1.8783	7.8230
1.8787	7.8230
1.8790	7.8230
1.8793	7.8230
1.8797	7.8230
1.8800	7.8230
1.8803	7.8230
1.8807	7.8230
1.8810	7.8230
1.8813	7.8230
1.8817	7.8240
1.8820	7.8240
1.8823	7.8240
1.8827	7.8240
1.8830	7.8240
1.8833	7.8240
1.8837	7.8240
1.8840	7.8250
1.8843	7.8250
1.8847	7.8250
1.8850	7.8250
1.8853	7.8250
1.8857	7.8250
1.8860	7.8250
1.8863	7.8250
1.8867	7.8260
1.8870	7.8260
1.8873	7.8250
1.8877	7.8250
1.8880	7.8250
1.8883	7.8260
1.8887	7.8260
1.8890	7.8260
1.8893	7.8250
1.8897	7.8250
1.8900	7.8250
1.8903	7.8250
1.8907	7.8260
1.8910	7.8260
1.8913	7.8250
1.8917	7.8250
1.8920	7.8260
1.8923	7.8250
1.8927	7.8250
1.8930	7.8250
1.8933	7.8250
1.8937	7.8250
1.8940	7.8250
1.8943	7.8250
1.8947	7.8250
1.8950	7.8250
1.8953	7.8250
1.8957	7.8250
1.8960	7.8250
1.8963	7.8250
1.8967	7.8250
1.8970	7.8250
1.8973	7.8250
1.8977	7.8250
1.8980	7.8250
1.8983	7.8240
1.8987	7.8240
1.8990	7.8240
1.8993	7.8240
1.8997	7.8240
1.9000	7.8240
1.9003	7.8240
1.9007	7.8240
1.9010	7.8230
1.9013	7.8230
1.9017	7.8230
1.9020	7.8230
1.9023	7.8230
1.9027	7.8230
1.9030	7.8230
1.9033	7.8220
1.9037	7.8220
1.9040	7.8220
1.9043	7.8220
1.9047	7.8220
1.9050	7.8220
1.9053	7.8220
1.9057	7.8220
1.9060	7.8220
1.9063	7.8210
1.9067	7.8210
1.9070	7.8210
1.9073	7.8210
1.9077	7.8210
1.9080	7.8210
1.9083	7.8210
1.9087	7.8210
1.9090	7.8200
1.9093	7.8200
1.9097	7.8200
1.9100	7.8200
1.9103	7.8200
1.9107	7.8200
1.9110	7.8200
1.9113	7.8200
1.9117	7.8200
1.9120	7.8200
1.9123	7.8200
1.9127	7.8200
1.9130	7.8200
1.9133	7.8200
1.9137	7.8200
1.9140	7.8200
1.9143	7.8200
1.9147	7.8200
1.9150	7.8210
1.9153	7.8210
1.9157	7.8200
1.9160	7.8200
1.9163	7.8200
1.9167	7.8200
1.9170	7.8200
1.9173	7.8210
1.9177	7.8210
1.9180	7.8210
1.9183	7.8210
1.9187	7.8210
1.9190	7.8210
1.9193	7.8210
1.9197	7.8210
1.9200	7.8210
1.9203	7.8210
1.9207	7.8210
1.9210	7.8210
1.9213	7.8210
1.9217	7.8210
1.9220	7.8210
1.9223	7.8210
1.9227	7.8210
1.9230	7.8210
1.9233	7.8210
1.9237	7.8210
1.9240	7.8210
1.9243	7.8210
1.9247	7.8210
1.9250	7.8210
1.9253	7.8210
1.9257	7.8210
1.9260	7.8210
1.9263	7.8210
1.9267	7.8210
1.9270	7.8210
1.9273	7.8210
1.9277	7.8210
1.9280	7.8200
1.9283	7.8200
1.9287	7.8200
1.9290	7.8200
1.9293	7.8200
1.9297	7.8200
1.9300	7.8200
1.9303	7.8200
1.9307	7.8190
1.9310	7.8190
1.9313	7.8190
1.9317	7.8190
1.9320	7.8190
1.9323	7.8190
1.9327	7.8190
1.9330	7.8180
1.9333	7.8180
1.9337	7.8180
1.9340	7.8180
1.9343	7.8180
1.9347	7.8180
1.9350	7.8180
1.9353	7.8180
1.9357	7.8180
1.9360	7.8170
1.9363	7.8170
1.9367	7.8170
1.9370	7.8170
1.9373	7.8170
1.9377	7.8170
1.9380	7.8170
1.9383	7.8170
1.9387	7.8170
1.9390	7.8170
1.9393	7.8170
1.9397	7.8170
1.9400	7.8170
1.9403	7.8170
1.9407	7.8170
1.9410	7.8170
1.9413	7.8170
1.9417	7.8170
1.9420	7.8170
1.9423	7.8170
1.9427	7.8170
1.9430	7.8180
1.9433	7.8180
1.9437	7.8180
1.9440	7.8180
1.9443	7.8180
1.9447	7.8180
1.9450	7.8180
1.9453	7.8180
1.9457	7.8180
1.9460	7.8180
1.9463	7.8180
1.9467	7.8180
1.9470	7.8180
1.9473	7.8180
1.9477	7.8190
1.9480	7.8190
1.9483	7.8190
1.9487	7.8190
1.9490	7.8190
1.9493	7.8190
1.9497	7.8190
1.9500	7.8190
1.9503	7.8190
1.9507	7.8190
1.9510	7.8190
1.9513	7.8190
1.9517	7.8190
1.9520	7.8190
1.9523	7.8190
1.9527	7.8190
1.9530	7.8190
1.9533	7.8190
1.9537	7.8200
1.9540	7.8200
1.9543	7.8200
1.9547	7.8200
1.9550	7.8200
1.9553	7.8200
1.9557	7.8200
1.9560	7.8200
1.9563	7.8200
1.9567	7.8200
1.9570	7.8210
1.9573	7.8210
1.9577	7.8210
1.9580	7.8210
1.9583	7.8210
1.9587	7.8210
1.9590	7.8210
1.9593	7.8210
1.9597	7.8210
1.9600	7.8210
1.9603	7.8210
1.9607	7.8210
1.9610	7.8210
1.9613	7.8210
1.9617	7.8210
1.9620	7.8210
1.9623	7.8210
1.9627	7.8210
1.9630	7.8210
1.9633	7.8210
1.9637	7.8210
1.9640	7.8210
1.9643	7.8210
1.9647	7.8210
1.9650	7.8210
1.9653	7.8210
1.9657	7.8210
1.9660	7.8210
1.9663	7.8210
1.9667	7.8210
1.9670	7.8210
1.9673	7.8210
1.9677	7.8210
1.9680	7.8220
1.9683	7.8220
1.9687	7.8220
1.9690	7.8220
1.9693	7.8220
1.9697	7.8220
1.9700	7.8220
1.9703	7.8220
1.9707	7.8220
1.9710	7.8220
1.9713	7.8220
1.9717	7.8220
1.9720	7.8220
1.9723	7.8220
1.9727	7.8220
1.9730	7.8220
1.9733	7.8220
1.9737	7.8220
1.9740	7.8230
1.9743	7.8230
1.9747	7.8230
1.9750	7.8230
1.9753	7.8230
1.9757	7.8230
1.9760	7.8230
1.9763	7.8230
1.9767	7.8240
1.9770	7.8240
1.9773	7.8240
1.9777	7.8240
1.9780	7.8250
1.9783	7.8250
1.9787	7.8250
1.9790	7.8260
1.9793	7.8270
1.9797	7.8270
1.9800	7.8280
1.9803	7.8280
1.9807	7.8290
1.9810	7.8290
1.9813	7.8300
1.9817	7.8300
1.9820	7.8310
1.9823	7.8320
1.9827	7.8330
1.9830	7.8330
1.9833	7.8340
1.9837	7.8350
1.9840	7.8360
1.9843	7.8370
1.9847	7.8380
1.9850	7.8390
1.9853	7.8400
1.9857	7.8420
1.9860	7.8430
1.9863	7.8440
1.9867	7.8450
1.9870	7.8460
1.9873	7.8480
1.9877	7.8490
1.9880	7.8510
1.9883	7.8520
1.9887	7.8540
1.9890	7.8560
1.9893	7.8570
1.9897	7.8590
1.9900	7.8610
1.9903	7.8630
1.9907	7.8650
1.9910	7.8680
1.9913	7.8700
1.9917	7.8730
1.9920	7.8760
1.9923	7.8780
1.9927	7.8810
1.9930	7.8840
1.9933	7.8870
1.9937	7.8910
1.9940	7.8940
1.9943	7.8970
1.9947	7.9010
1.9950	7.9050
1.9953	7.9090
1.9957	7.9130
1.9960	7.9170
1.9963	7.9210
1.9967	7.9260
1.9970	7.9300
1.9973	7.9350
1.9977	7.9400
1.9980	7.9450
1.9983	7.9510
1.9987	7.9560
1.9990	7.9620
1.9993	7.9680
1.9997	7.9740
2.0000	7.9810
2.0003	7.9870
2.0007	7.9940
2.0010	8.0010
2.0013	8.0080
2.0017	8.0150
2.0020	8.0230
2.0023	8.0310
2.0027	8.0390
2.0030	8.0470
2.0033	8.0560
2.0037	8.0650
2.0040	8.0740
2.0043	8.0830
2.0047	8.0930
2.0050	8.1030
2.0053	8.1130
2.0057	8.1240
2.0060	8.1340
2.0063	8.1450
2.0067	8.1560
2.0070	8.1670
2.0073	8.1790
2.0077	8.1910
2.0080	8.2030
2.0083	8.2160
2.0087	8.2290
2.0090	8.2420
2.0093	8.2550
2.0097	8.2690
2.0100	8.2820
2.0103	8.2960
2.0107	8.3100
2.0110	8.3250
2.0113	8.3400
2.0117	8.3550
2.0120	8.3710
2.0123	8.3860
2.0127	8.4020
2.0130	8.4190
2.0133	8.4350
2.0137	8.4520
2.0140	8.4690
2.0143	8.4860
2.0147	8.5040
2.0150	8.5210
2.0153	8.5390
2.0157	8.5580
2.0160	8.5760
2.0163	8.5940
2.0167	8.6130
2.0170	8.6320
2.0173	8.6520
2.0177	8.6710
2.0180	8.6900
2.0183	8.7100
2.0187	8.7300
2.0190	8.7500
2.0193	8.7700
2.0197	8.7900
2.0200	8.8100
2.0203	8.8300
2.0207	8.8510
2.0210	8.8710
2.0213	8.8920
2.0217	8.9130
2.0220	8.9330
2.0223	8.9540
2.0227	8.9750
2.0230	8.9960
2.0233	9.0170
2.0237	9.0380
2.0240	9.0580
2.0243	9.0790
2.0247	9.0990
2.0250	9.1200
2.0253	9.1400
2.0257	9.1610
2.0260	9.1810
2.0263	9.2010
2.0267	9.2200
2.0270	9.2400
2.0273	9.2600
2.0277	9.2790
2.0280	9.2980
2.0283	9.3170
2.0287	9.3360
2.0290	9.3540
2.0293	9.3730
2.0297	9.3910
2.0300	9.4080
2.0303	9.4250
2.0307	9.4420
2.0310	9.4590
2.0313	9.4760
2.0317	9.4910
2.0320	9.5070
2.0323	9.5220
2.0327	9.5370
2.0330	9.5510
2.0333	9.5650
2.0337	9.5790
2.0340	9.5920
2.0343	9.6040
2.0347	9.6160
2.0350	9.6280
2.0353	9.6390
2.0357	9.6490
2.0360	9.6590
2.0363	9.6690
2.0367	9.6780
2.0370	9.6860
2.0373	9.6940
2.0377	9.7020
2.0380	9.7090
2.0383	9.7150
2.0387	9.7200
2.0390	9.7260
2.0393	9.7300
2.0397	9.7340
2.0400	9.7370
2.0403	9.7400
2.0407	9.7430
2.0410	9.7440
2.0413	9.7450
2.0417	9.7460
2.0420	9.7460
2.0423	9.7450
2.0427	9.7440
2.0430	9.7420
2.0433	9.7400
2.0437	9.7360
2.0440	9.7330
2.0443	9.7280
2.0447	9.7240
2.0450	9.7180
2.0453	9.7130
2.0457	9.7060
2.0460	9.6990
2.0463	9.6910
2.0467	9.6830
2.0470	9.6740
2.0473	9.6650
2.0477	9.6560
2.0480	9.6460
2.0483	9.6350
2.0487	9.6240
2.0490	9.6120
2.0493	9.6000
2.0497	9.5870
2.0500	9.5740
2.0503	9.5610
2.0507	9.5470
2.0510	9.5330
2.0513	9.5180
2.0517	9.5030
2.0520	9.4870
2.0523	9.4710
2.0527	9.4550
2.0530	9.4390
2.0533	9.4220
2.0537	9.4050
2.0540	9.3870
2.0543	9.3700
2.0547	9.3520
2.0550	9.3330
2.0553	9.3150
2.0557	9.2960
2.0560	9.2780
2.0563	9.2580
2.0567	9.2390
2.0570	9.2200
2.0573	9.2000
2.0577	9.1810
2.0580	9.1610
2.0583	9.1410
2.0587	9.1210
2.0590	9.1010
2.0593	9.0810
2.0597	9.0600
2.0600	9.0400
2.0603	9.0200
2.0607	8.9990
2.0610	8.9790
2.0613	8.9590
2.0617	8.9380
2.0620	8.9180
2.0623	8.8980
2.0627	8.8770
2.0630	8.8570
2.0633	8.8370
2.0637	8.8170
2.0640	8.7970
2.0643	8.7770
2.0647	8.7580
2.0650	8.7380
2.0653	8.7190
2.0657	8.7000
2.0660	8.6810
2.0663	8.6620
2.0667	8.6430
2.0670	8.6240
2.0673	8.6060
2.0677	8.5880
2.0680	8.5700
2.0683	8.5530
2.0687	8.5350
2.0690	8.5180
2.0693	8.5010
2.0697	8.4840
2.0700	8.4670
2.0703	8.4510
2.0707	8.4350
2.0710	8.4190
2.0713	8.4030
2.0717	8.3880
2.0720	8.3730
2.0723	8.3580
2.0727	8.3430
2.0730	8.3290
2.0733	8.3150
2.0737	8.3010
2.0740	8.2870
2.0743	8.2740
2.0747	8.2610
2.0750	8.2480
2.0753	8.2350
2.0757	8.2230
2.0760	8.2110
2.0763	8.1990
2.0767	8.1870
2.0770	8.1760
2.0773	8.1650
2.0777	8.1540
2.0780	8.1440
2.0783	8.1340
2.0787	8.1240
2.0790	8.1140
2.0793	8.1050
2.0797	8.0950
2.0800	8.0860
2.0803	8.0770
2.0807	8.0690
2.0810	8.0610
2.0813	8.0530
2.0817	8.0450
2.0820	8.0370
2.0823	8.0290
2.0827	8.0220
2.0830	8.0140
2.0833	8.0070
2.0837	8.0010
2.0840	7.9940
2.0843	7.9880
2.0847	7.9820
2.0850	7.9760
2.0853	7.9700
2.0857	7.9640
2.0860	7.9580
2.0863	7.9530
2.0867	7.9480
2.0870	7.9430
2.0873	7.9380
2.0877	7.9330
2.0880	7.9290
2.0883	7.9240
2.0887	7.9200
2.0890	7.9160
2.0893	7.9120
2.0897	7.9080
2.0900	7.9050
2.0903	7.9010
2.0907	7.8970
2.0910	7.8940
2.0913	7.8910
2.0917	7.8880
2.0920	7.8850
2.0923	7.8820
2.0927	7.8790
2.0930	7.8770
2.0933	7.8740
2.0937	7.8720
2.0940	7.8690
2.0943	7.8670
2.0947	7.8650
2.0950	7.8620
2.0953	7.8600
2.0957	7.8580
2.0960	7.8560
2.0963	7.8540
2.0967	7.8530
2.0970	7.8510
2.0973	7.8490
2.0977	7.8480
2.0980	7.8460
2.0983	7.8440
2.0987	7.8430
2.0990	7.8420
2.0993	7.8400
2.0997	7.8390
2.1000	7.8380
2.1003	7.8370
2.1007	7.8360
2.1010	7.8350
2.1013	7.8340
2.1017	7.8330
2.1020	7.8330
2.1023	7.8320
2.1027	7.8310
2.1030	7.8310
2.1033	7.8300
2.1037	7.8290
2.1040	7.8290
2.1043	7.8280
2.1047	7.8280
2.1050	7.8270
2.1053	7.8270
2.1057	7.8260
2.1060	7.8260
2.1063	7.8250
2.1067	7.8250
2.1070	7.8250
2.1073	7.8240
2.1077	7.8240
2.1080	7.8240
2.1083	7.8230
2.1087	7.8230
2.1090	7.8230
2.1093	7.8220
2.1097	7.8220
2.1100	7.8220
2.1103	7.8220
2.1107	7.8220
2.1110	7.8210
2.1113	7.8210
2.1117	7.8210
2.1120	7.8210
2.1123	7.8210
2.1127	7.8210
2.1130	7.8210
2.1133	7.8210
2.1137	7.8200
2.1140	7.8200
2.1143	7.8200
2.1147	7.8200
2.1150	7.8200
2.1153	7.8200
2.1157	7.8200
2.1160	7.8200
2.1163	7.8200
2.1167	7.8200
2.1170	7.8200
2.1173	7.8200
2.1177	7.8200
2.1180	7.8200
2.1183	7.8200
2.1187	7.8200
2.1190	7.8200
2.1193	7.8200
2.1197	7.8200
2.1200	7.8200
2.1203	7.8200
2.1207	7.8200
2.1210	7.8200
2.1213	7.8200
2.1217	7.8200
2.1220	7.8200
2.1223	7.8200
2.1227	7.8200
2.1230	7.8200
2.1233	7.8200
2.1237	7.8200
2.1240	7.8200
2.1243	7.8200
2.1247	7.8200
2.1250	7.8200
2.1253	7.8200
2.1257	7.8190
2.1260	7.8190
2.1263	7.8190
2.1267	7.8190
2.1270	7.8190
2.1273	7.8190
2.1277	7.8190
2.1280	7.8190
2.1283	7.8190
2.1287	7.8190
2.1290	7.8190
2.1293	7.8190
2.1297	7.8180
2.1300	7.8180
2.1303	7.8190
2.1307	7.8190
2.1310	7.8180
2.1313	7.8180
2.1317	7.8180
2.1320	7.8180
2.1323	7.8180
2.1327	7.8180
2.1330	7.8180
2.1333	7.8170
2.1337	7.8170
2.1340	7.8170
2.1343	7.8170
2.1347	7.8170
2.1350	7.8170
2.1353	7.8170
2.1357	7.8160
2.1360	7.8160
2.1363	7.8160
2.1367	7.8160
2.1370	7.8160
2.1373	7.8160
2.1377	7.8160
2.1380	7.8160
2.1383	7.8160
2.1387	7.8160
2.1390	7.8160
2.1393	7.8160
2.1397	7.8160
2.1400	7.8160
2.1403	7.8160
2.1407	7.8150
2.1410	7.8150
2.1413	7.8150
2.1417	7.8150
2.1420	7.8160
2.1423	7.8160
2.1427	7.8160
2.1430	7.8150
2.1433	7.8150
2.1437	7.8150
2.1440	7.8160
2.1443	7.8160
2.1447	7.8160
2.1450	7.8160
2.1453	7.8160
2.1457	7.8160
2.1460	7.8160
2.1463	7.8160
2.1467	7.8160
2.1470	7.8160
2.1473	7.8160
2.1477	7.8160
2.1480	7.8170
2.1483	7.8170
2.1487	7.8170
2.1490	7.8170
2.1493	7.8170
2.1497	7.8180
2.1500	7.8180
2.1503	7.8180
2.1507	7.8190
2.1510	7.8190
2.1513	7.8190
2.1517	7.8190
2.1520	7.8200
2.1523	7.8200
2.1527	7.8210
2.1530	7.8210
2.1533	7.8220
2.1537	7.8220
2.1540	7.8230
2.1543	7.8240
2.1547	7.8250
2.1550	7.8260
2.1553	7.8270
2.1557	7.8280
2.1560	7.8290
2.1563	7.8300
2.1567	7.8310
2.1570	7.8330
2.1573	7.8340
2.1577	7.8360
2.1580	7.8380
2.1583	7.8400
2.1587	7.8420
2.1590	7.8440
2.1593	7.8470
2.1597	7.8500
2.1600	7.8520
2.1603	7.8560
2.1607	7.8590
2.1610	7.8620
2.1613	7.8660
2.1617	7.8700
2.1620	7.8740
2.1623	7.8790
2.1627	7.8840
2.1630	7.8890
2.1633	7.8950
2.1637	7.9010
2.1640	7.9070
2.1643	7.9140
2.1647	7.9210
2.1650	7.9290
2.1653	7.9380
2.1657	7.9470
2.1660	7.9570
2.1663	7.9670
2.1667	7.9780
2.1670	7.9890
2.1673	8.0020
2.1677	8.0160
2.1680	8.0300
2.1683	8.0460
2.1687	8.0620
2.1690	8.0790
2.1693	8.0980
2.1697	8.1170
2.1700	8.1380
2.1703	8.1610
2.1707	8.1850
2.1710	8.2100
2.1713	8.2370
2.1717	8.2650
2.1720	8.2950
2.1723	8.3270
2.1727	8.3610
2.1730	8.3970
2.1733	8.4350
2.1737	8.4760
2.1740	8.5190
2.1743	8.5640
2.1747	8.6120
2.1750	8.6630
2.1753	8.7160
2.1757	8.7730
2.1760	8.8330
2.1763	8.8960
2.1767	8.9630
2.1770	9.0340
2.1773	9.1080
2.1777	9.1860
2.1780	9.2690
2.1783	9.3560
2.1787	9.4480
2.1790	9.5440
2.1793	9.6460
2.1797	9.7530
2.1800	9.8650
2.1803	9.9830
2.1807	10.1080
2.1810	10.2380
2.1813	10.3750
2.1817	10.5180
2.1820	10.6690
2.1823	10.8270
2.1827	10.9920
2.1830	11.1650
2.1833	11.3470
2.1837	11.5360
2.1840	11.7350
2.1843	11.9430
2.1847	12.1600
2.1850	12.3960
2.1853	12.6330
2.1857	12.8800
2.1860	13.1380
2.1863	13.4070
2.1867	13.6870
2.1870	13.9780
2.1873	14.2820
2.1877	14.5990
2.1880	14.9280
2.1883	15.2700
2.1887	15.6260
2.1890	15.9950
2.1893	16.3780
2.1897	16.7770
2.1900	17.1900
2.1903	17.6190
2.1907	18.0630
2.1910	18.5230
2.1913	18.9990
2.1917	19.4920
2.1920	20.0020
2.1923	20.5300
2.1927	21.0750
2.1930	21.6380
2.1933	22.2200
2.1937	22.8200
2.1940	23.4390
2.1943	24.0780
2.1947	24.7360
2.1950	25.4130
2.1953	26.1110
2.1957	26.8290
2.1960	27.5670
2.1963	28.3250
2.1967	29.1040
2.1970	29.9040
2.1973	30.7250
2.1977	31.5680
2.1980	32.4320
2.1983	33.3170
2.1987	34.2230
2.1990	35.1510
2.1993	36.1000
2.1997	37.0710
2.2000	38.0630
2.2003	39.0770
2.2007	40.1130
2.2010	41.1690
2.2013	42.2470
2.2017	43.3660
2.2020	44.4860
2.2023	45.6260
2.2027	46.7860
2.2030	47.9670
2.2033	49.1670
2.2037	50.3860
2.2040	51.6250
2.2043	52.8820
2.2047	54.1570
2.2050	55.4500
2.2053	56.7600
2.2057	58.0880
2.2060	59.4310
2.2063	60.7910
2.2067	62.1660
2.2070	63.5540
2.2073	64.9560
2.2077	66.3720
2.2080	67.8010
2.2083	69.2420
2.2087	70.6930
2.2090	72.1550
2.2093	73.6260
2.2097	75.1050
2.2100	76.5920
2.2103	78.0850
2.2107	79.5840
2.2110	81.0870
2.2113	82.5950
2.2117	84.1040
2.2120	85.6160
2.2123	87.1280
2.2127	88.6390
2.2130	90.1490
2.2133	91.6560
2.2137	93.1600
2.2140	94.6590
2.2143	96.1510
2.2147	97.6360
2.2150	99.1120
2.2153	100.5790
2.2157	102.0350
2.2160	103.4800
2.2163	104.9110
2.2167	106.3280
2.2170	107.7290
2.2173	109.1130
2.2177	110.4790
2.2180	111.8260
2.2183	113.1320
2.2187	114.4380
2.2190	115.7210
2.2193	116.9810
2.2197	118.2170
2.2200	119.4270
2.2203	120.6090
2.2207	121.7650
2.2210	122.8900
2.2213	123.9870
2.2217	125.0530
2.2220	126.0880
2.2223	127.0890
2.2227	128.0560
2.2230	128.9880
2.2233	129.8850
2.2237	130.7460
2.2240	131.5700
2.2243	132.3560
2.2247	133.1020
2.2250	133.8090
2.2253	134.4770
2.2257	135.1030
2.2260	135.6890
2.2263	136.2330
2.2267	136.7350
2.2270	137.1940
2.2273	137.6100
2.2277	137.9830
2.2280	138.3120
2.2283	138.5980
2.2287	138.8400
2.2290	139.0380
2.2293	139.1910
2.2297	139.3010
2.2300	139.3660
2.2303	139.3870
2.2307	139.3640
2.2310	139.2980
2.2313	139.1870
2.2317	139.0330
2.2320	138.8360
2.2323	138.5940
2.2327	138.3110
2.2330	137.9850
2.2333	137.6170
2.2337	137.2060
2.2340	136.7550
2.2343	136.2630
2.2347	135.7310
2.2350	135.1210
2.2353	134.5100
2.2357	133.8620
2.2360	133.1750
2.2363	132.4510
2.2367	131.6900
2.2370	130.8940
2.2373	130.0640
2.2377	129.1990
2.2380	128.3020
2.2383	127.3720
2.2387	126.4110
2.2390	125.4210
2.2393	124.4000
2.2397	123.3520
2.2400	122.2770
2.2403	121.1750
2.2407	120.0480
2.2410	118.8970
2.2413	117.7220
2.2417	116.5260
2.2420	115.3070
2.2423	114.0690
2.2427	112.8120
2.2430	111.5370
2.2433	110.2450
2.2437	108.9380
2.2440	107.6160
2.2443	106.2800
2.2447	104.9320
2.2450	103.5710
2.2453	102.2000
2.2457	100.8200
2.2460	99.4320
2.2463	98.0360
2.2467	96.6330
2.2470	95.2250
2.2473	93.8130
2.2477	92.3970
2.2480	90.9780
2.2483	89.5580
2.2487	88.1380
2.2490	86.7170
2.2493	85.2980
2.2497	83.8810
2.2500	82.4670
2.2503	81.0570
2.2507	79.6510
2.2510	78.2520
2.2513	76.8580
2.2517	75.4790
2.2520	74.1000
2.2523	72.7300
2.2527	71.3690
2.2530	70.0180
2.2533	68.6770
2.2537	67.3490
2.2540	66.0310
2.2543	64.7260
2.2547	63.4340
2.2550	62.1560
2.2553	60.8900
2.2557	59.6400
2.2560	58.4030
2.2563	57.1830
2.2567	55.9780
2.2570	54.7880
2.2573	53.6150
2.2577	52.4580
2.2580	51.3190
2.2583	50.1960
2.2587	49.0910
2.2590	48.0040
2.2593	46.9340
2.2597	45.8820
2.2600	44.8490
2.2603	43.8330
2.2607	42.8360
2.2610	41.8570
2.2613	40.8970
2.2617	39.9560
2.2620	39.0330
2.2623	38.1280
2.2627	37.2420
2.2630	36.3740
2.2633	35.5250
2.2637	34.6950
2.2640	33.8820
2.2643	33.0880
2.2647	32.3130
2.2650	31.5550
2.2653	30.8140
2.2657	30.0920
2.2660	29.3870
2.2663	28.7000
2.2667	28.0310
2.2670	27.3780
2.2673	26.7420
2.2677	26.1230
2.2680	25.5200
2.2683	24.9490
2.2687	24.3780
2.2690	23.8230
2.2693	23.2830
2.2697	22.7580
2.2700	22.2490
2.2703	21.7540
2.2707	21.2730
2.2710	20.8060
2.2713	20.3530
2.2717	19.9140
2.2720	19.4880
2.2723	19.0750
2.2727	18.6750
2.2730	18.2870
2.2733	17.9110
2.2737	17.5480
2.2740	17.1960
2.2743	16.8550
2.2747	16.5250
2.2750	16.2060
2.2753	15.8970
2.2757	15.5990
2.2760	15.3100
2.2763	15.0320
2.2767	14.7620
2.2770	14.5020
2.2773	14.2510
2.2777	14.0090
2.2780	13.7750
2.2783	13.5490
2.2787	13.3320
2.2790	13.1220
2.2793	12.9190
2.2797	12.7240
2.2800	12.5360
2.2803	12.3540
2.2807	12.1800
2.2810	12.0110
2.2813	11.8490
2.2817	11.6930
2.2820	11.5420
2.2823	11.3980
2.2827	11.2580
2.2830	11.1240
2.2833	10.9950
2.2837	10.8710
2.2840	10.7510
2.2843	10.6360
2.2847	10.5260
2.2850	10.4240
2.2853	10.3220
2.2857	10.2240
2.2860	10.1300
2.2863	10.0390
2.2867	9.9520
2.2870	9.8690
2.2873	9.7890
2.2877	9.7120
2.2880	9.6380
2.2883	9.5680
2.2887	9.4990
2.2890	9.4340
2.2893	9.3720
2.2897	9.3120
2.2900	9.2550
2.2903	9.2000
2.2907	9.1470
2.2910	9.0960
2.2913	9.0480
2.2917	9.0010
2.2920	8.9570
2.2923	8.9140
2.2927	8.8740
2.2930	8.8350
2.2933	8.7970
2.2937	8.7620
2.2940	8.7270
2.2943	8.6950
2.2947	8.6630
2.2950	8.6330
2.2953	8.6050
2.2957	8.5770
2.2960	8.5510
2.2963	8.5250
2.2967	8.5010
2.2970	8.4780
2.2973	8.4560
2.2977	8.4350
2.2980	8.4150
2.2983	8.3960
2.2987	8.3770
2.2990	8.3600
2.2993	8.3430
2.2997	8.3270
2.3000	8.3110
2.3003	8.2970
2.3007	8.2830
2.3010	8.2690
2.3013	8.2560
2.3017	8.2450
2.3020	8.2330
2.3023	8.2220
2.3027	8.2110
2.3030	8.2010
2.3033	8.1910
2.3037	8.1810
2.3040	8.1730
2.3043	8.1640
2.3047	8.1560
2.3050	8.1480
2.3053	8.1400
2.3057	8.1330
2.3060	8.1260
2.3063	8.1190
2.3067	8.1130
2.3070	8.1060
2.3073	8.1000
2.3077	8.0940
2.3080	8.0890
2.3083	8.0840
2.3087	8.0790
2.3090	8.0740
2.3093	8.0690
2.3097	8.0650
2.3100	8.0600
2.3103	8.0560
2.3107	8.0520
2.3110	8.0480
2.3113	8.0450
2.3117	8.0410
2.3120	8.0370
2.3123	8.0340
2.3127	8.0310
2.3130	8.0280
2.3133	8.0250
2.3137	8.0220
2.3140	8.0190
2.3143	8.0160
2.3147	8.0140
2.3150	8.0110
2.3153	8.0090
2.3157	8.0070
2.3160	8.0040
2.3163	8.0020
2.3167	8.0000
2.3170	7.9980
2.3173	7.9960
2.3177	7.9940
2.3180	7.9920
2.3183	7.9900
2.3187	7.9880
2.3190	7.9860
2.3193	7.9850
2.3197	7.9830
2.3200	7.9820
2.3203	7.9800
2.3207	7.9790
2.3210	7.9770
2.3213	7.9750
2.3217	7.9740
2.3220	7.9730
2.3223	7.9710
2.3227	7.9700
2.3230	7.9690
2.3233	7.9680
2.3237	7.9670
2.3240	7.9660
2.3243	7.9640
2.3247	7.9630
2.3250	7.9620
2.3253	7.9610
2.3257	7.9600
2.3260	7.9590
2.3263	7.9580
2.3267	7.9570
2.3270	7.9560
2.3273	7.9550
2.3277	7.9540
2.3280	7.9530
2.3283	7.9530
2.3287	7.9520
2.3290	7.9510
2.3293	7.9500
2.3297	7.9490
2.3300	7.9480
2.3303	7.9480
2.3307	7.9470
2.3310	7.9460
2.3313	7.9460
2.3317	7.9450
2.3320	7.9440
2.3323	7.9430
2.3327	7.9430
2.3330	7.9420
2.3333	7.9420
2.3337	7.9410
2.3340	7.9400
2.3343	7.9400
2.3347	7.9390
2.3350	7.9380
2.3353	7.9380
2.3357	7.9370
2.3360	7.9370
2.3363	7.9360
2.3367	7.9350
2.3370	7.9350
2.3373	7.9340
2.3377	7.9340
2.3380	7.9330
2.3383	7.9320
2.3387	7.9320
2.3390	7.9310
2.3393	7.9310
2.3397	7.9300
2.3400	7.9290
2.3403	7.9290
2.3407	7.9280
2.3410	7.9280
2.3413	7.9270
2.3417	7.9260
2.3420	7.9260
2.3423	7.9250
2.3427	7.9240
2.3430	7.9240
2.3433	7.9230
2.3437	7.9220
2.3440	7.9220
2.3443	7.9210
2.3447	7.9200
2.3450	7.9200
2.3453	7.9190
2.3457	7.9180
2.3460	7.9180
2.3463	7.9170
2.3467	7.9170
2.3470	7.9160
2.3473	7.9160
2.3477	7.9150
2.3480	7.9140
2.3483	7.9130
2.3487	7.9130
2.3490	7.9130
2.3493	7.9120
2.3497	7.9120
2.3500	7.9110
2.3503	7.9100
2.3507	7.9100
2.3510	7.9090
2.3513	7.9080
2.3517	7.9080
2.3520	7.9070
2.3523	7.9070
2.3527	7.9070
2.3530	7.9060
2.3533	7.9050
2.3537	7.9050
2.3540	7.9040
2.3543	7.9040
2.3547	7.9040
2.3550	7.9030
2.3553	7.9030
2.3557	7.9020
2.3560	7.9020
2.3563	7.9010
2.3567	7.9010
2.3570	7.9010
2.3573	7.9010
2.3577	7.9000
2.3580	7.9000
2.3583	7.9000
2.3587	7.8990
2.3590	7.8990
2.3593	7.8990
2.3597	7.8990
2.3600	7.8990
2.3603	7.8980
2.3607	7.8980
2.3610	7.8980
2.3613	7.8980
2.3617	7.8970
2.3620	7.8970
2.3623	7.8970
2.3627	7.8970
2.3630	7.8970
2.3633	7.8960
2.3637	7.8960
2.3640	7.8960
2.3643	7.8950
2.3647	7.8950
2.3650	7.8950
2.3653	7.8950
2.3657	7.8940
2.3660	7.8940
2.3663	7.8940
2.3667	7.8930
2.3670	7.8930
2.3673	7.8930
2.3677	7.8930
2.3680	7.8930
2.3683	7.8930
2.3687	7.8920
2.3690	7.8920
2.3693	7.8920
2.3697	7.8920
2.3700	7.8910
2.3703	7.8910
2.3707	7.8910
2.3710	7.8910
2.3713	7.8900
2.3717	7.8900
2.3720	7.8900
2.3723	7.8900
2.3727	7.8900
2.3730	7.8890
2.3733	7.8890
2.3737	7.8890
2.3740	7.8880
2.3743	7.8880
2.3747	7.8880
2.3750	7.8880
2.3753	7.8870
2.3757	7.8870
2.3760	7.8870
2.3763	7.8870
2.3767	7.8860
2.3770	7.8860
2.3773	7.8860
2.3777	7.8860
2.3780	7.8850
2.3783	7.8850
2.3787	7.8850
2.3790	7.8850
2.3793	7.8850
2.3797	7.8840
2.3800	7.8840
2.3803	7.8840
2.3807	7.8840
2.3810	7.8840
2.3813	7.8830
2.3817	7.8830
2.3820	7.8830
2.3823	7.8830
2.3827	7.8830
2.3830	7.8820
2.3833	7.8820
2.3837	7.8820
2.3840	7.8820
2.3843	7.8810
2.3847	7.8810
2.3850	7.8810
2.3853	7.8800
2.3857	7.8800
2.3860	7.8800
2.3863	7.8800
2.3867	7.8790
2.3870	7.8790
2.3873	7.8790
2.3877	7.8790
2.3880	7.8780
2.3883	7.8780
2.3887	7.8780
2.3890	7.8780
2.3893	7.8770
2.3897	7.8770
2.3900	7.8770
2.3903	7.8760
2.3907	7.8760
2.3910	7.8760
2.3913	7.8760
2.3917	7.8750
2.3920	7.8750
2.3923	7.8750
2.3927	7.8740
2.3930	7.8740
2.3933	7.8740
2.3937	7.8730
2.3940	7.8730
2.3943	7.8730
2.3947	7.8730
2.3950	7.8730
2.3953	7.8720
2.3957	7.8720
2.3960	7.8720
2.3963	7.8720
2.3967	7.8710
2.3970	7.8710
2.3973	7.8710
2.3977	7.8710
2.3980	7.8700
2.3983	7.8700
2.3987	7.8700
2.3990	7.8690
2.3993	7.8690
2.3997	7.8690
2.4000	7.8690
2.4003	7.8690
2.4007	7.8680
2.4010	7.8680
2.4013	7.8680
2.4017	7.8680
2.4020	7.8670
2.4023	7.8670
2.4027	7.8670
2.4030	7.8670
2.4033	7.8670
2.4037	7.8670
2.4040	7.8670
2.4043	7.8660
2.4047	7.8660
2.4050	7.8660
2.4053	7.8660
2.4057	7.8660
2.4060	7.8660
2.4063	7.8660
2.4067	7.8660
2.4070	7.8660
2.4073	7.8650
2.4077	7.8650
2.4080	7.8650
2.4083	7.8650
2.4087	7.8650
2.4090	7.8650
2.4093	7.8650
2.4097	7.8650
2.4100	7.8650
2.4103	7.8650
2.4107	7.8640
2.4110	7.8640
2.4113	7.8640
2.4117	7.8640
2.4120	7.8640
2.4123	7.8640
2.4127	7.8630
2.4130	7.8630
2.4133	7.8630
2.4137	7.8630
2.4140	7.8630
2.4143	7.8630
2.4147	7.8630
2.4150	7.8630
2.4153	7.8620
2.4157	7.8620
2.4160	7.8620
2.4163	7.8620
2.4167	7.8620
2.4170	7.8620
2.4173	7.8610
2.4177	7.8610
2.4180	7.8610
2.4183	7.8610
2.4187	7.8610
2.4190	7.8610
2.4193	7.8610
2.4197	7.8610
2.4200	7.8610
2.4203	7.8610
2.4207	7.8610
2.4210	7.8600
2.4213	7.8600
2.4217	7.8600
2.4220	7.8600
2.4223	7.8600
2.4227	7.8600
2.4230	7.8600
2.4233	7.8600
2.4237	7.8600
2.4240	7.8600
2.4243	7.8600
2.4247	7.8590
2.4250	7.8590
2.4253	7.8590
2.4257	7.8590
2.4260	7.8590
2.4263	7.8590
2.4267	7.8590
2.4270	7.8590
2.4273	7.8580
2.4277	7.8580
2.4280	7.8580
2.4283	7.8580
2.4287	7.8580
2.4290	7.8580
2.4293	7.8580
2.4297	7.8580
2.4300	7.8570
2.4303	7.8570
2.4307	7.8570
2.4310	7.8570
2.4313	7.8570
2.4317	7.8570
2.4320	7.8560
2.4323	7.8560
2.4327	7.8560
2.4330	7.8560
2.4333	7.8560
2.4337	7.8560
2.4340	7.8550
2.4343	7.8550
2.4347	7.8550
2.4350	7.8550
2.4353	7.8550
2.4357	7.8550
2.4360	7.8550
2.4363	7.8550
2.4367	7.8550
2.4370	7.8540
2.4373	7.8540
2.4377	7.8540
2.4380	7.8540
2.4383	7.8540
2.4387	7.8530
2.4390	7.8530
2.4393	7.8530
2.4397	7.8530
2.4400	7.8530
2.4403	7.8530
2.4407	7.8520
2.4410	7.8520
2.4413	7.8520
2.4417	7.8520
2.4420	7.8520
2.4423	7.8520
2.4427	7.8520
2.4430	7.8520
2.4433	7.8520
2.4437	7.8510
2.4440	7.8510
2.4443	7.8510
2.4447	7.8510
2.4450	7.8510
2.4453	7.8510
2.4457	7.8510
2.4460	7.8510
2.4463	7.8510
2.4467	7.8510
2.4470	7.8510
2.4473	7.8510
2.4477	7.8510
2.4480	7.8510
2.4483	7.8500
2.4487	7.8500
2.4490	7.8510
2.4493	7.8510
2.4497	7.8510
2.4500	7.8510
2.4503	7.8500
2.4507	7.8500
2.4510	7.8500
2.4513	7.8500
2.4517	7.8500
2.4520	7.8500
2.4523	7.8500
2.4527	7.8500
2.4530	7.8500
2.4533	7.8490
2.4537	7.8490
2.4540	7.8490
2.4543	7.8490
2.4547	7.8490
2.4550	7.8490
2.4553	7.8490
2.4557	7.8490
2.4560	7.8490
2.4563	7.8490
2.4567	7.8480
2.4570	7.8480
2.4573	7.8480
2.4577	7.8480
2.4580	7.8480
2.4583	7.8480
2.4587	7.8480
2.4590	7.8480
2.4593	7.8480
2.4597	7.8470
2.4600	7.8470
2.4603	7.8470
2.4607	7.8470
2.4610	7.8470
2.4613	7.8470
2.4617	7.8470
2.4620	7.8470
2.4623	7.8470
2.4627	7.8470
2.4630	7.8470
2.4633	7.8460
2.4637	7.8460
2.4640	7.8460
2.4643	7.8460
2.4647	7.8460
2.4650	7.8460
2.4653	7.8460
2.4657	7.8460
2.4660	7.8460
2.4663	7.8460
2.4667	7.8450
2.4670	7.8450
2.4673	7.8450
2.4677	7.8450
2.4680	7.8450
2.4683	7.8450
2.4687	7.8450
2.4690	7.8450
2.4693	7.8450
2.4697	7.8450
2.4700	7.8460
2.4703	7.8460
2.4707	7.8460
2.4710	7.8460
2.4713	7.8460
2.4717	7.8460
2.4720	7.8460
2.4723	7.8460
2.4727	7.8460
2.4730	7.8460
2.4733	7.8460
2.4737	7.8460
2.4740	7.8460
2.4743	7.8460
2.4747	7.8460
2.4750	7.8460
2.4753	7.8460
2.4757	7.8460
2.4760	7.8460
2.4763	7.8460
2.4767	7.8460
2.4770	7.8460
2.4773	7.8460
2.4777	7.8460
2.4780	7.8470
2.4783	7.8470
2.4787	7.8470
2.4790	7.8470
2.4793	7.8470
2.4797	7.8470
2.4800	7.8470
2.4803	7.8470
2.4807	7.8470
2.4810	7.8470
2.4813	7.8470
2.4817	7.8470
2.4820	7.8470
2.4823	7.8470
2.4827	7.8470
2.4830	7.8470
2.4833	7.8470
2.4837	7.8470
2.4840	7.8470
2.4843	7.8470
2.4847	7.8470
2.4850	7.8470
2.4853	7.8470
2.4857	7.8480
2.4860	7.8480
2.4863	7.8480
2.4867	7.8480
2.4870	7.8480
2.4873	7.8470
2.4877	7.8480
2.4880	7.8480
2.4883	7.8480
2.4887	7.8480
2.4890	7.8480
2.4893	7.8480
2.4897	7.8480
2.4900	7.8480
2.4903	7.8480
2.4907	7.8480
2.4910	7.8480
2.4913	7.8480
2.4917	7.8490
2.4920	7.8490
2.4923	7.8490
2.4927	7.8490
2.4930	7.8490
2.4933	7.8490
2.4937	7.8490
2.4940	7.8500
2.4943	7.8500
2.4947	7.8500
2.4950	7.8500
2.4953	7.8500
2.4957	7.8500
2.4960	7.8500
2.4963	7.8500
2.4967	7.8500
2.4970	7.8500
2.4973	7.8510
2.4977	7.8510
2.4980	7.8510
2.4983	7.8510
2.4987	7.8510
2.4990	7.8510
2.4993	7.8510
2.4997	7.8520
2.5000	7.8520
2.5003	7.8520
2.5007	7.8520
2.5010	7.8520
2.5013	7.8520
2.5017	7.8520
2.5020	7.8520
2.5023	7.8520
2.5027	7.8520
2.5030	7.8530
2.5033	7.8530
2.5037	7.8530
2.5040	7.8530
2.5043	7.8530
2.5047	7.8530
2.5050	7.8530
2.5053	7.8530
2.5057	7.8540
2.5060	7.8540
2.5063	7.8540
2.5067	7.8540
2.5070	7.8540
2.5073	7.8540
2.5077	7.8540
2.5080	7.8540
2.5083	7.8540
2.5087	7.8550
2.5090	7.8550
2.5093	7.8550
2.5097	7.8550
2.5100	7.8550
2.5103	7.8550
2.5107	7.8550
2.5110	7.8550
2.5113	7.8550
2.5117	7.8560
2.5120	7.8560
2.5123	7.8560
2.5127	7.8560
2.5130	7.8560
2.5133	7.8560
2.5137	7.8560
2.5140	7.8560
2.5143	7.8560
2.5147	7.8560
2.5150	7.8560
2.5153	7.8560
2.5157	7.8560
2.5160	7.8560
2.5163	7.8560
2.5167	7.8560
2.5170	7.8560
2.5173	7.8560
2.5177	7.8560
2.5180	7.8560
2.5183	7.8560
2.5187	7.8560
2.5190	7.8560
2.5193	7.8570
2.5197	7.8570
2.5200	7.8570
2.5203	7.8570
2.5207	7.8570
2.5210	7.8570
2.5213	7.8570
2.5217	7.8570
2.5220	7.8570
2.5223	7.8570
2.5227	7.8570
2.5230	7.8570
2.5233	7.8570
2.5237	7.8570
2.5240	7.8570
2.5243	7.8570
2.5247	7.8570
2.5250	7.8560
2.5253	7.8560
2.5257	7.8560
2.5260	7.8560
2.5263	7.8560
2.5267	7.8560
2.5270	7.8560
2.5273	7.8560
2.5277	7.8560
2.5280	7.8560
2.5283	7.8560
2.5287	7.8560
2.5290	7.8560
2.5293	7.8560
2.5297	7.8560
2.5300	7.8560
2.5303	7.8560
2.5307	7.8560
2.5310	7.8560
2.5313	7.8560
2.5317	7.8560
2.5320	7.8560
2.5323	7.8560
2.5327	7.8560
2.5330	7.8560
2.5333	7.8560
2.5337	7.8560
2.5340	7.8560
2.5343	7.8560
2.5347	7.8550
2.5350	7.8550
2.5353	7.8550
2.5357	7.8550
2.5360	7.8550
2.5363	7.8550
2.5367	7.8550
2.5370	7.8550
2.5373	7.8550
2.5377	7.8540
2.5380	7.8540
2.5383	7.8540
2.5387	7.8540
2.5390	7.8540
2.5393	7.8540
2.5397	7.8540
2.5400	7.8540
2.5403	7.8540
2.5407	7.8530
2.5410	7.8530
2.5413	7.8530
2.5417	7.8530
2.5420	7.8530
2.5423	7.8530
2.5427	7.8530
2.5430	7.8530
2.5433	7.8530
2.5437	7.8530
2.5440	7.8530
2.5443	7.8530
2.5447	7.8530
2.5450	7.8520
2.5453	7.8520
2.5457	7.8520
2.5460	7.8520
2.5463	7.8520
2.5467	7.8520
2.5470	7.8520
2.5473	7.8520
2.5477	7.8510
2.5480	7.8510
2.5483	7.8510
2.5487	7.8510
2.5490	7.8510
2.5493	7.8510
2.5497	7.8510
2.5500	7.8510
2.5503	7.8500
2.5507	7.8500
2.5510	7.8500
2.5513	7.8500
2.5517	7.8500
2.5520	7.8500
2.5523	7.8500
2.5527	7.8490
2.5530	7.8490
2.5533	7.8490
2.5537	7.8490
2.5540	7.8490
2.5543	7.8490
2.5547	7.8490
2.5550	7.8490
2.5553	7.8490
2.5557	7.8490
2.5560	7.8490
2.5563	7.8480
2.5567	7.8480
2.5570	7.8480
2.5573	7.8480
2.5577	7.8480
2.5580	7.8480
2.5583	7.8480
2.5587	7.8470
2.5590	7.8470
2.5593	7.8470
2.5597	7.8470
2.5600	7.8470
2.5603	7.8470
2.5607	7.8470
2.5610	7.8470
2.5613	7.8470
2.5617	7.8460
2.5620	7.8470
2.5623	7.8470
2.5627	7.8470
2.5630	7.8470
2.5633	7.8460
2.5637	7.8460
2.5640	7.8460
2.5643	7.8460
2.5647	7.8460
2.5650	7.8470
2.5653	7.8460
2.5657	7.8460
2.5660	7.8460
2.5663	7.8460
2.5667	7.8460
2.5670	7.8460
2.5673	7.8470
2.5677	7.8470
2.5680	7.8470
2.5683	7.8460
2.5687	7.8460
2.5690	7.8460
2.5693	7.8470
2.5697	7.8470
2.5700	7.8470
2.5703	7.8470
2.5707	7.8470
2.5710	7.8470
2.5713	7.8470
2.5717	7.8470
2.5720	7.8470
2.5723	7.8480
2.5727	7.8480
2.5730	7.8480
2.5733	7.8480
2.5737	7.8480
2.5740	7.8480
2.5743	7.8480
2.5747	7.8480
2.5750	7.8480
2.5753	7.8480
2.5757	7.8490
2.5760	7.8490
2.5763	7.8480
2.5767	7.8480
2.5770	7.8480
2.5773	7.8480
2.5777	7.8490
2.5780	7.8490
2.5783	7.8490
2.5787	7.8490
2.5790	7.8480
2.5793	7.8480
2.5797	7.8480
2.5800	7.8480
2.5803	7.8490
2.5807	7.8490
2.5810	7.8490
2.5813	7.8490
2.5817	7.8480
2.5820	7.8480
2.5823	7.8490
2.5827	7.8490
2.5830	7.8490
2.5833	7.8490
2.5837	7.8490
2.5840	7.8490
2.5843	7.8490
2.5847	7.8490
2.5850	7.8490
2.5853	7.8490
2.5857	7.8490
2.5860	7.8490
2.5863	7.8500
2.5867	7.8490
2.5870	7.8490
2.5873	7.8490
2.5877	7.8490
2.5880	7.8490
2.5883	7.8500
2.5887	7.8500
2.5890	7.8500
2.5893	7.8500
2.5897	7.8500
2.5900	7.8500
2.5903	7.8500
2.5907	7.8500
2.5910	7.8500
2.5913	7.8500
2.5917	7.8500
2.5920	7.8510
2.5923	7.8510
2.5927	7.8510
2.5930	7.8510
2.5933	7.8510
2.5937	7.8510
2.5940	7.8520
2.5943	7.8520
2.5947	7.8520
2.5950	7.8520
2.5953	7.8530
2.5957	7.8530
2.5960	7.8530
2.5963	7.8540
2.5967	7.8540
2.5970	7.8540
2.5973	7.8540
2.5977	7.8550
2.5980	7.8550
2.5983	7.8550
2.5987	7.8550
2.5990	7.8550
2.5993	7.8550
2.5997	7.8560
2.6000	7.8560
2.6003	7.8560
2.6007	7.8560
2.6010	7.8560
2.6013	7.8570
2.6017	7.8570
2.6020	7.8570
2.6023	7.8570
2.6027	7.8570
2.6030	7.8580
2.6033	7.8580
2.6037	7.8580
2.6040	7.8580
2.6043	7.8590
2.6047	7.8590
2.6050	7.8590
2.6053	7.8590
2.6057	7.8590
2.6060	7.8600
2.6063	7.8600
2.6067	7.8600
2.6070	7.8600
2.6073	7.8600
2.6077	7.8600
2.6080	7.8600
2.6083	7.8610
2.6087	7.8610
2.6090	7.8610
2.6093	7.8610
2.6097	7.8610
2.6100	7.8610
2.6103	7.8620
2.6107	7.8620
2.6110	7.8620
2.6113	7.8620
2.6117	7.8620
2.6120	7.8620
2.6123	7.8620
2.6127	7.8620
2.6130	7.8620
2.6133	7.8620
2.6137	7.8620
2.6140	7.8620
2.6143	7.8620
2.6147	7.8620
2.6150	7.8620
2.6153	7.8620
2.6157	7.8620
2.6160	7.8620
2.6163	7.8620
2.6167	7.8620
2.6170	7.8620
2.6173	7.8620
2.6177	7.8620
2.6180	7.8620
2.6183	7.8620
2.6187	7.8620
2.6190	7.8630
2.6193	7.8620
2.6197	7.8620
2.6200	7.8620
2.6203	7.8620
2.6207	7.8620
2.6210	7.8620
2.6213	7.8620
2.6217	7.8620
2.6220	7.8620
2.6223	7.8620
2.6227	7.8620
2.6230	7.8620
2.6233	7.8620
2.6237	7.8620
2.6240	7.8620
2.6243	7.8620
2.6247	7.8610
2.6250	7.8610
2.6253	7.8610
2.6257	7.8610
2.6260	7.8610
2.6263	7.8610
2.6267	7.8610
2.6270	7.8610
2.6273	7.8600
2.6277	7.8600
2.6280	7.8600
2.6283	7.8600
2.6287	7.8600
2.6290	7.8600
2.6293	7.8600
2.6297	7.8590
2.6300	7.8590
2.6303	7.8590
2.6307	7.8590
2.6310	7.8590
2.6313	7.8590
2.6317	7.8590
2.6320	7.8590
2.6323	7.8590
2.6327	7.8590
2.6330	7.8590
2.6333	7.8580
2.6337	7.8580
2.6340	7.8590
2.6343	7.8590
2.6347	7.8580
2.6350	7.8580
2.6353	7.8580
2.6357	7.8580
2.6360	7.8580
2.6363	7.8580
2.6367	7.8580
2.6370	7.8580
2.6373	7.8580
2.6377	7.8580
2.6380	7.8570
2.6383	7.8570
2.6387	7.8570
2.6390	7.8570
2.6393	7.8570
2.6397	7.8570
2.6400	7.8570
2.6403	7.8570
2.6407	7.8570
2.6410	7.8570
2.6413	7.8570
2.6417	7.8570
2.6420	7.8570
2.6423	7.8560
2.6427	7.8560
2.6430	7.8560
2.6433	7.8560
2.6437	7.8560
2.6440	7.8560
2.6443	7.8560
2.6447	7.8560
2.6450	7.8560
2.6453	7.8560
2.6457	7.8560
2.6460	7.8560
2.6463	7.8560
2.6467	7.8560
2.6470	7.8550
2.6473	7.8550
2.6477	7.8550
2.6480	7.8550
2.6483	7.8550
2.6487	7.8550
2.6490	7.8550
2.6493	7.8550
2.6497	7.8540
2.6500	7.8540
2.6503	7.8540
2.6507	7.8540
2.6510	7.8540
2.6513	7.8540
2.6517	7.8540
2.6520	7.8540
2.6523	7.8540
2.6527	7.8540
2.6530	7.8540
2.6533	7.8530
2.6537	7.8540
2.6540	7.8540
2.6543	7.8540
2.6547	7.8540
2.6550	7.8540
2.6553	7.8530
2.6557	7.8530
2.6560	7.8530
2.6563	7.8530
2.6567	7.8530
2.6570	7.8530
2.6573	7.8530
2.6577	7.8530
2.6580	7.8530
2.6583	7.8530
2.6587	7.8530
2.6590	7.8530
2.6593	7.8530
2.6597	7.8530
2.6600	7.8530
2.6603	7.8530
2.6607	7.8530
2.6610	7.8530
2.6613	7.8530
2.6617	7.8530
2.6620	7.8540
2.6623	7.8540
2.6627	7.8540
2.6630	7.8540
2.6633	7.8540
2.6637	7.8540
2.6640	7.8540
2.6643	7.8540
2.6647	7.8540
2.6650	7.8540
2.6653	7.8540
2.6657	7.8540
2.6660	7.8540
2.6663	7.8540
2.6667	7.8540
2.6670	7.8540
2.6673	7.8540
2.6677	7.8540
2.6680	7.8540
2.6683	7.8530
2.6687	7.8530
2.6690	7.8530
2.6693	7.8530
2.6697	7.8530
2.6700	7.8530
2.6703	7.8530
2.6707	7.8530
2.6710	7.8530
2.6713	7.8530
2.6717	7.8530
2.6720	7.8530
2.6723	7.8530
2.6727	7.8530
2.6730	7.8530
2.6733	7.8530
2.6737	7.8530
2.6740	7.8530
2.6743	7.8530
2.6747	7.8530
2.6750	7.8530
2.6753	7.8530
2.6757	7.8530
2.6760	7.8530
2.6763	7.8530
2.6767	7.8520
2.6770	7.8520
2.6773	7.8520
2.6777	7.8520
2.6780	7.8520
2.6783	7.8520
2.6787	7.8520
2.6790	7.8520
2.6793	7.8520
2.6797	7.8520
2.6800	7.8520
2.6803	7.8520
2.6807	7.8520
2.6810	7.8520
2.6813	7.8520
2.6817	7.8520
2.6820	7.8520
2.6823	7.8520
2.6827	7.8520
2.6830	7.8520
2.6833	7.8520
2.6837	7.8520
2.6840	7.8520
2.6843	7.8520
2.6847	7.8520
2.6850	7.8520
2.6853	7.8520
2.6857	7.8520
2.6860	7.8520
2.6863	7.8520
2.6867	7.8520
2.6870	7.8520
2.6873	7.8520
2.6877	7.8520
2.6880	7.8520
2.6883	7.8520
2.6887	7.8520
2.6890	7.8520
2.6893	7.8520
2.6897	7.8520
2.6900	7.8520
2.6903	7.8520
2.6907	7.8520
2.6910	7.8520
2.6913	7.8520
2.6917	7.8520
2.6920	7.8520
2.6923	7.8520
2.6927	7.8520
2.6930	7.8520
2.6933	7.8520
2.6937	7.8520
2.6940	7.8520
2.6943	7.8520
2.6947	7.8520
2.6950	7.8520
2.6953	7.8520
2.6957	7.8520
2.6960	7.8520
2.6963	7.8520
2.6967	7.8520
2.6970	7.8520
2.6973	7.8520
2.6977	7.8520
2.6980	7.8520
2.6983	7.8520
2.6987	7.8520
2.6990	7.8520
2.6993	7.8520
2.6997	7.8520
2.7000	7.8520
2.7003	7.8520
2.7007	7.8520
2.7010	7.8520
2.7013	7.8520
2.7017	7.8520
2.7020	7.8520
2.7023	7.8520
2.7027	7.8520
2.7030	7.8520
2.7033	7.8520
2.7037	7.8520
2.7040	7.8520
2.7043	7.8520
2.7047	7.8520
2.7050	7.8520
2.7053	7.8520
2.7057	7.8520
2.7060	7.8520
2.7063	7.8520
2.7067	7.8520
2.7070	7.8520
2.7073	7.8520
2.7077	7.8520
2.7080	7.8520
2.7083	7.8520
2.7087	7.8520
2.7090	7.8520
2.7093	7.8520
2.7097	7.8520
2.7100	7.8520
2.7103	7.8520
2.7107	7.8520
2.7110	7.8510
2.7113	7.8510
2.7117	7.8510
2.7120	7.8510
2.7123	7.8510
2.7127	7.8510
2.7130	7.8510
2.7133	7.8510
2.7137	7.8510
2.7140	7.8500
2.7143	7.8500
2.7147	7.8500
2.7150	7.8500
2.7153	7.8500
2.7157	7.8500
2.7160	7.8500
2.7163	7.8500
2.7167	7.8500
2.7170	7.8490
2.7173	7.8490
2.7177	7.8490
2.7180	7.8490
2.7183	7.8490
2.7187	7.8490
2.7190	7.8490
2.7193	7.8490
2.7197	7.8490
2.7200	7.8490
2.7203	7.8490
2.7207	7.8490
2.7210	7.8490
2.7213	7.8480
2.7217	7.8480
2.7220	7.8480
2.7223	7.8480
2.7227	7.8480
2.7230	7.8480
2.7233	7.8480
2.7237	7.8480
2.7240	7.8480
2.7243	7.8480
2.7247	7.8480
2.7250	7.8480
2.7253	7.8480
2.7257	7.8480
2.7260	7.8480
2.7263	7.8480
2.7267	7.8470
2.7270	7.8470
2.7273	7.8470
2.7277	7.8470
2.7280	7.8470
2.7283	7.8470
2.7287	7.8470
2.7290	7.8470
2.7293	7.8470
2.7297	7.8470
2.7300	7.8470
2.7303	7.8470
2.7307	7.8470
2.7310	7.8470
2.7313	7.8470
2.7317	7.8470
2.7320	7.8470
2.7323	7.8470
2.7327	7.8470
2.7330	7.8470
2.7333	7.8470
2.7337	7.8470
2.7340	7.8470
2.7343	7.8470
2.7347	7.8470
2.7350	7.8470
2.7353	7.8470
2.7357	7.8470
2.7360	7.8470
2.7363	7.8470
2.7367	7.8470
2.7370	7.8470
2.7373	7.8470
2.7377	7.8470
2.7380	7.8470
2.7383	7.8470
2.7387	7.8470
2.7390	7.8480
2.7393	7.8480
2.7397	7.8470
2.7400	7.8470
2.7403	7.8470
2.7407	7.8470
2.7410	7.8470
2.7413	7.8470
2.7417	7.8470
2.7420	7.8470
2.7423	7.8470
2.7427	7.8470
2.7430	7.8470
2.7433	7.8470
2.7437	7.8470
2.7440	7.8470
2.7443	7.8470
2.7447	7.8470
2.7450	7.8460
2.7453	7.8460
2.7457	7.8460
2.7460	7.8460
2.7463	7.8460
2.7467	7.8460
2.7470	7.8460
2.7473	7.8460
2.7477	7.8450
2.7480	7.8450
2.7483	7.8460
2.7487	7.8460
2.7490	7.8460
2.7493	7.8450
2.7497	7.8450
2.7500	7.8450
2.7503	7.8450
2.7507	7.8450
2.7510	7.8450
2.7513	7.8450
2.7517	7.8450
2.7520	7.8450
2.7523	7.8450
2.7527	7.8450
2.7530	7.8450
2.7533	7.8440
2.7537	7.8440
2.7540	7.8440
2.7543	7.8440
2.7547	7.8440
2.7550	7.8440
2.7553	7.8440
2.7557	7.8430
2.7560	7.8430
2.7563	7.8430
2.7567	7.8430
2.7570	7.8430
2.7573	7.8430
2.7577	7.8430
2.7580	7.8430
2.7583	7.8430
2.7587	7.8430
2.7590	7.8430
2.7593	7.8430
2.7597	7.8420
2.7600	7.8420
2.7603	7.8420
2.7607	7.8420
2.7610	7.8420
2.7613	7.8420
2.7617	7.8420
2.7620	7.8420
2.7623	7.8420
2.7627	7.8420
2.7630	7.8410
2.7633	7.8410
2.7637	7.8410
2.7640	7.8410
2.7643	7.8410
2.7647	7.8420
2.7650	7.8410
2.7653	7.8410
2.7657	7.8410
2.7660	7.8410
2.7663	7.8410
2.7667	7.8410
2.7670	7.8410
2.7673	7.8410
2.7677	7.8410
2.7680	7.8410
2.7683	7.8410
2.7687	7.8410
2.7690	7.8410
2.7693	7.8400
2.7697	7.8400
2.7700	7.8400
2.7703	7.8400
2.7707	7.8400
2.7710	7.8400
2.7713	7.8400
2.7717	7.8400
2.7720	7.8400
2.7723	7.8400
2.7727	7.8400
2.7730	7.8400
2.7733	7.8400
2.7737	7.8400
2.7740	7.8400
2.7743	7.8400
2.7747	7.8400
2.7750	7.8400
2.7753	7.8400
2.7757	7.8400
2.7760	7.8390
2.7763	7.8390
2.7767	7.8390
2.7770	7.8400
2.7773	7.8400
2.7777	7.8390
2.7780	7.8390
2.7783	7.8390
2.7787	7.8390
2.7790	7.8390
2.7793	7.8390
2.7797	7.8390
2.7800	7.8390
2.7803	7.8390
2.7807	7.8390
2.7810	7.8390
2.7813	7.8390
2.7817	7.8390
2.7820	7.8390
2.7823	7.8380
2.7827	7.8380
2.7830	7.8390
2.7833	7.8380
2.7837	7.8380
2.7840	7.8380
2.7843	7.8380
2.7847	7.8380
2.7850	7.8380
2.7853	7.8390
2.7857	7.8380
2.7860	7.8380
2.7863	7.8380
2.7867	7.8380
2.7870	7.8380
2.7873	7.8380
2.7877	7.8390
2.7880	7.8390
2.7883	7.8390
2.7887	7.8390
2.7890	7.8390
2.7893	7.8390
2.7897	7.8390
2.7900	7.8390
2.7903	7.8390
2.7907	7.8390
2.7910	7.8390
2.7913	7.8390
2.7917	7.8390
2.7920	7.8390
2.7923	7.8390
2.7927	7.8390
2.7930	7.8390
2.7933	7.8400
2.7937	7.8390
2.7940	7.8390
2.7943	7.8390
2.7947	7.8390
2.7950	7.8390
2.7953	7.8400
2.7957	7.8400
2.7960	7.8400
2.7963	7.8400
2.7967	7.8400
2.7970	7.8400
2.7973	7.8400
2.7977	7.8400
2.7980	7.8400
2.7983	7.8400
2.7987	7.8400
2.7990	7.8410
2.7993	7.8410
2.7997	7.8410
2.8000	7.8410
2.8003	7.8410
2.8007	7.8410
2.8010	7.8410
2.8013	7.8410
2.8017	7.8410
2.8020	7.8410
2.8023	7.8410
2.8027	7.8410
2.8030	7.8410
2.8033	7.8420
2.8037	7.8420
2.8040	7.8420
2.8043	7.8420
2.8047	7.8420
2.8050	7.8420
2.8053	7.8420
2.8057	7.8420
2.8060	7.8430
2.8063	7.8430
2.8067	7.8430
2.8070	7.8430
2.8073	7.8430
2.8077	7.8430
2.8080	7.8430
2.8083	7.8430
2.8087	7.8440
2.8090	7.8440
2.8093	7.8440
2.8097	7.8450
2.8100	7.8450
2.8103	7.8450
2.8107	7.8450
2.8110	7.8460
2.8113	7.8460
2.8117	7.8460
2.8120	7.8460
2.8123	7.8460
2.8127	7.8470
2.8130	7.8470
2.8133	7.8470
2.8137	7.8480
2.8140	7.8480
2.8143	7.8480
2.8147	7.8480
2.8150	7.8480
2.8153	7.8480
2.8157	7.8490
2.8160	7.8490
2.8163	7.8490
2.8167	7.8500
2.8170	7.8500
2.8173	7.8500
2.8177	7.8510
2.8180	7.8510
2.8183	7.8510
2.8187	7.8520
2.8190	7.8520
2.8193	7.8530
2.8197	7.8530
2.8200	7.8530
2.8203	7.8530
2.8207	7.8540
2.8210	7.8540
2.8213	7.8550
2.8217	7.8550
2.8220	7.8550
2.8223	7.8550
2.8227	7.8560
2.8230	7.8560
2.8233	7.8560
2.8237	7.8570
2.8240	7.8570
2.8243	7.8580
2.8247	7.8580
2.8250	7.8580
2.8253	7.8590
2.8257	7.8590
2.8260	7.8590
2.8263	7.8600
2.8267	7.8600
2.8270	7.8600
2.8273	7.8610
2.8277	7.8610
2.8280	7.8610
2.8283	7.8620
2.8287	7.8620
2.8290	7.8630
2.8293	7.8630
2.8297	7.8630
2.8300	7.8640
2.8303	7.8640
2.8307	7.8640
2.8310	7.8650
2.8313	7.8650
2.8317	7.8650
2.8320	7.8660
2.8323	7.8660
2.8327	7.8660
2.8330	7.8670
2.8333	7.8670
2.8337	7.8670
2.8340	7.8670
2.8343	7.8680
2.8347	7.8680
2.8350	7.8680
2.8353	7.8680
2.8357	7.8690
2.8360	7.8690
2.8363	7.8690
2.8367	7.8690
2.8370	7.8690
2.8373	7.8700
2.8377	7.8700
2.8380	7.8700
2.8383	7.8700
2.8387	7.8700
2.8390	7.8710
2.8393	7.8710
2.8397	7.8710
2.8400	7.8710
2.8403	7.8710
2.8407	7.8710
2.8410	7.8710
2.8413	7.8710
2.8417	7.8710
2.8420	7.8710
2.8423	7.8710
2.8427	7.8710
2.8430	7.8720
2.8433	7.8720
2.8437	7.8720
2.8440	7.8720
2.8443	7.8720
2.8447	7.8720
2.8450	7.8720
2.8453	7.8720
2.8457	7.8720
2.8460	7.8720
2.8463	7.8720
2.8467	7.8720
2.8470	7.8720
2.8473	7.8720
2.8477	7.8720
2.8480	7.8720
2.8483	7.8720
2.8487	7.8720
2.8490	7.8720
2.8493	7.8710
2.8497	7.8710
2.8500	7.8710
2.8503	7.8710
2.8507	7.8710
2.8510	7.8700
2.8513	7.8700
2.8517	7.8700
2.8520	7.8700
2.8523	7.8700
2.8527	7.8700
2.8530	7.8690
2.8533	7.8690
2.8537	7.8690
2.8540	7.8690
2.8543	7.8680
2.8547	7.8680
2.8550	7.8680
2.8553	7.8670
2.8557	7.8670
2.8560	7.8670
2.8563	7.8670
2.8567	7.8670
2.8570	7.8660
2.8573	7.8660
2.8577	7.8660
2.8580	7.8650
2.8583	7.8650
2.8587	7.8650
2.8590	7.8650
2.8593	7.8640
2.8597	7.8640
2.8600	7.8630
2.8603	7.8630
2.8607	7.8630
2.8610	7.8620
2.8613	7.8620
2.8617	7.8610
2.8620	7.8610
2.8623	7.8610
2.8627	7.8600
2.8630	7.8600
2.8633	7.8590
2.8637	7.8590
2.8640	7.8590
2.8643	7.8580
2.8647	7.8580
2.8650	7.8570
2.8653	7.8570
2.8657	7.8570
2.8660	7.8570
2.8663	7.8560
2.8667	7.8560
2.8670	7.8560
2.8673	7.8550
2.8677	7.8550
2.8680	7.8550
2.8683	7.8550
2.8687	7.8540
2.8690	7.8540
2.8693	7.8530
2.8697	7.8530
2.8700	7.8530
2.8703	7.8530
2.8707	7.8520
2.8710	7.8520
2.8713	7.8510
2.8717	7.8510
2.8720	7.8510
2.8723	7.8500
2.8727	7.8500
2.8730	7.8490
2.8733	7.8490
2.8737	7.8490
2.8740	7.8480
2.8743	7.8480
2.8747	7.8470
2.8750	7.8470
2.8753	7.8470
2.8757	7.8460
2.8760	7.8460
2.8763	7.8460
2.8767	7.8450
2.8770	7.8450
2.8773	7.8440
2.8777	7.8440
2.8780	7.8440
2.8783	7.8440
2.8787	7.8430
2.8790	7.8430
2.8793	7.8430
2.8797	7.8420
2.8800	7.8420
2.8803	7.8420
2.8807	7.8420
2.8810	7.8410
2.8813	7.8410
2.8817	7.8410
2.8820	7.8400
2.8823	7.8400
2.8827	7.8390
2.8830	7.8390
2.8833	7.8390
2.8837	7.8390
2.8840	7.8380
2.8843	7.8380
2.8847	7.8380
2.8850	7.8370
2.8853	7.8370
2.8857	7.8370
2.8860	7.8370
2.8863	7.8360
2.8867	7.8360
2.8870	7.8360
2.8873	7.8360
2.8877	7.8360
2.8880	7.8350
2.8883	7.8350
2.8887	7.8350
2.8890	7.8350
2.8893	7.8350
2.8897	7.8350
2.8900	7.8350
2.8903	7.8340
2.8907	7.8340
2.8910	7.8340
2.8913	7.8340
2.8917	7.8340
2.8920	7.8340
2.8923	7.8340
2.8927	7.8340
2.8930	7.8330
2.8933	7.8330
2.8937	7.8330
2.8940	7.8330
2.8943	7.8330
2.8947	7.8330
2.8950	7.8330
2.8953	7.8330
2.8957	7.8330
2.8960	7.8320
2.8963	7.8320
2.8967	7.8320
2.8970	7.8320
2.8973	7.8320
2.8977	7.8320
2.8980	7.8320
2.8983	7.8320
2.8987	7.8310
2.8990	7.8310
2.8993	7.8310
2.8997	7.8310
2.9000	7.8310
2.9003	7.8310
2.9007	7.8310
2.9010	7.8310
2.9013	7.8310
2.9017	7.8310
2.9020	7.8300
2.9023	7.8300
2.9027	7.8300
2.9030	7.8310
2.9033	7.8310
2.9037	7.8300
2.9040	7.8300
2.9043	7.8300
2.9047	7.8300
2.9050	7.8300
2.9053	7.8300
2.9057	7.8300
2.9060	7.8300
2.9063	7.8300
2.9067	7.8300
2.9070	7.8300
2.9073	7.8300
2.9077	7.8300
2.9080	7.8300
2.9083	7.8300
2.9087	7.8300
2.9090	7.8300
2.9093	7.8300
2.9097	7.8300
2.9100	7.8300
2.9103	7.8300
2.9107	7.8300
2.9110	7.8300
2.9113	7.8290
2.9117	7.8290
2.9120	7.8290
2.9123	7.8290
2.9127	7.8300
2.9130	7.8300
2.9133	7.8300
2.9137	7.8300
2.9140	7.8300
2.9143	7.8300
2.9147	7.8300
2.9150	7.8300
2.9153	7.8300
2.9157	7.8300
2.9160	7.8300
2.9163	7.8300
2.9167	7.8300
2.9170	7.8300
2.9173	7.8300
2.9177	7.8300
2.9180	7.8300
2.9183	7.8300
2.9187	7.8300
2.9190	7.8300
2.9193	7.8300
2.9197	7.8300
2.9200	7.8300
2.9203	7.8300
2.9207	7.8300
2.9210	7.8300
2.9213	7.8300
2.9217	7.8300
2.9220	7.8300
2.9223	7.8300
2.9227	7.8300
2.9230	7.8300
2.9233	7.8300
2.9237	7.8300
2.9240	7.8300
2.9243	7.8300
2.9247	7.8300
2.9250	7.8300
2.9253	7.8290
2.9257	7.8290
2.9260	7.8290
2.9263	7.8290
2.9267	7.8290
2.9270	7.8290
2.9273	7.8290
2.9277	7.8290
2.9280	7.8290
2.9283	7.8290
2.9287	7.8290
2.9290	7.8300
2.9293	7.8300
2.9297	7.8300
2.9300	7.8290
2.9303	7.8290
2.9307	7.8290
2.9310	7.8290
2.9313	7.8300
2.9317	7.8300
2.9320	7.8300
2.9323	7.8300
2.9327	7.8300
2.9330	7.8290
2.9333	7.8290
2.9337	7.8290
2.9340	7.8290
2.9343	7.8300
2.9347	7.8300
2.9350	7.8300
2.9353	7.8300
2.9357	7.8290
2.9360	7.8290
2.9363	7.8290
2.9367	7.8290
2.9370	7.8300
2.9373	7.8300
2.9377	7.8300
2.9380	7.8300
2.9383	7.8300
2.9387	7.8300
2.9390	7.8300
2.9393	7.8300
2.9397	7.8300
2.9400	7.8310
2.9403	7.8310
2.9407	7.8310
2.9410	7.8300
2.9413	7.8300
2.9417	7.8300
2.9420	7.8310
2.9423	7.8310
2.9427	7.8310
2.9430	7.8320
2.9433	7.8320
2.9437	7.8310
2.9440	7.8310
2.9443	7.8310
2.9447	7.8320
2.9450	7.8320
2.9453	7.8320
2.9457	7.8330
2.9460	7.8320
2.9463	7.8320
2.9467	7.8330
2.9470	7.8330
2.9473	7.8330
2.9477	7.8340
2.9480	7.8340
2.9483	7.8340
2.9487	7.8340
2.9490	7.8340
2.9493	7.8340
2.9497	7.8350
2.9500	7.8350
2.9503	7.8360
2.9507	7.8360
2.9510	7.8360
2.9513	7.8360
2.9517	7.8360
2.9520	7.8370
2.9523	7.8370
2.9527	7.8380
2.9530	7.8380
2.9533	7.8380
2.9537	7.8380
2.9540	7.8380
2.9543	7.8380
2.9547	7.8390
2.9550	7.8390
2.9553	7.8400
2.9557	7.8400
2.9560	7.8400
2.9563	7.8400
2.9567	7.8410
2.9570	7.8410
2.9573	7.8420
2.9577	7.8430
2.9580	7.8430
2.9583	7.8440
2.9587	7.8440
2.9590	7.8440
2.9593	7.8440
2.9597	7.8450
2.9600	7.8460
2.9603	7.8470
2.9607	7.8470
2.9610	7.8480
2.9613	7.8480
2.9617	7.8490
2.9620	7.8490
2.9623	7.8500
2.9627	7.8500
2.9630	7.8510
2.9633	7.8520
2.9637	7.8530
2.9640	7.8540
2.9643	7.8540
2.9647	7.8540
2.9650	7.8550
2.9653	7.8560
2.9657	7.8570
2.9660	7.8580
2.9663	7.8590
2.9667	7.8590
2.9670	7.8600
2.9673	7.8610
2.9677	7.8620
2.9680	7.8630
2.9683	7.8640
2.9687	7.8650
2.9690	7.8660
2.9693	7.8670
2.9697	7.8670
2.9700	7.8680
2.9703	7.8690
2.9707	7.8700
2.9710	7.8720
2.9713	7.8730
2.9717	7.8740
2.9720	7.8750
2.9723	7.8750
2.9727	7.8760
2.9730	7.8780
2.9733	7.8790
2.9737	7.8800
2.9740	7.8810
2.9743	7.8820
2.9747	7.8830
2.9750	7.8840
2.9753	7.8850
2.9757	7.8860
2.9760	7.8880
2.9763	7.8890
2.9767	7.8900
2.9770	7.8910
2.9773	7.8920
2.9777	7.8930
2.9780	7.8940
2.9783	7.8960
2.9787	7.8970
2.9790	7.8980
2.9793	7.8980
2.9797	7.9000
2.9800	7.9010
2.9803	7.9020
2.9807	7.9030
2.9810	7.9050
2.9813	7.9060
2.9817	7.9070
2.9820	7.9080
2.9823	7.9090
2.9827	7.9100
2.9830	7.9110
2.9833	7.9130
2.9837	7.9140
2.9840	7.9150
2.9843	7.9160
2.9847	7.9170
2.9850	7.9180
2.9853	7.9200
2.9857	7.9210
2.9860	7.9220
2.9863	7.9230
2.9867	7.9240
2.9870	7.9250
2.9873	7.9260
2.9877	7.9270
2.9880	7.9280
2.9883	7.9290
2.9887	7.9310
2.9890	7.9320
2.9893	7.9320
2.9897	7.9330
2.9900	7.9340
2.9903	7.9350
2.9907	7.9350
2.9910	7.9360
2.9913	7.9370
2.9917	7.9380
2.9920	7.9390
2.9923	7.9400
2.9927	7.9400
2.9930	7.9410
2.9933	7.9410
2.9937	7.9420
2.9940	7.9430
2.9943	7.9440
2.9947	7.9440
2.9950	7.9440
2.9953	7.9450
2.9957	7.9450
2.9960	7.9460
2.9963	7.9460
2.9967	7.9460
2.9970	7.9470
2.9973	7.9470
2.9977	7.9470
2.9980	7.9470
2.9983	7.9470
2.9987	7.9470
2.9990	7.9470
2.9993	7.9470
2.9997	7.9470
3.0000	7.9470
3.0003	7.9470
3.0007	7.9470
3.0010	7.9470
3.0013	7.9470
3.0017	7.9470
3.0020	7.9470
3.0023	7.9460
3.0027	7.9460
3.0030	7.9460
3.0033	7.9450
3.0037	7.9450
3.0040	7.9450
3.0043	7.9440
3.0047	7.9440
3.0050	7.9430
3.0053	7.9430
3.0057	7.9420
3.0060	7.9420
3.0063	7.9420
3.0067	7.9410
3.0070	7.9410
3.0073	7.9400
3.0077	7.9390
3.0080	7.9390
3.0083	7.9380
3.0087	7.9370
3.0090	7.9370
3.0093	7.9360
3.0097	7.9350
3.0100	7.9340
3.0103	7.9340
3.0107	7.9330
